-0.176000000000000	0	0.200000000000000	0.532000000000000	0.371000000000000	0.0540000000000000	-0.0680000000000000	0.215000000000000	0.0290000000000000	0.0540000000000000	0.210000000000000	0.396000000000000	0.146000000000000	-0.0290000000000000	0.0490000000000000	0.205000000000000	0.0100000000000000	0.151000000000000	0.0100000000000000	-0.474000000000000	-0.571000000000000	-0.317000000000000	0.356000000000000	0.811000000000000	0.366000000000000	-0.674000000000000	-0.254000000000000	0.229000000000000	-0.317000000000000	-0.259000000000000	-0.122000000000000	0.0290000000000000	-0.156000000000000	0.0390000000000000	0.996000000000000	0.479000000000000	-0.0730000000000000	-0.322000000000000	-0.0930000000000000	-0.356000000000000	-0.0590000000000000	-0.0100000000000000	0.493000000000000	0.479000000000000	-0.122000000000000	-0.327000000000000	0.0150000000000000	0.386000000000000	0.439000000000000	0.151000000000000	0.122000000000000	0.0730000000000000	0.508000000000000	0.0440000000000000	-0.0240000000000000	0.464000000000000	0.244000000000000	-0.229000000000000	0.215000000000000	0.283000000000000	0.0880000000000000	0.161000000000000	-0.234000000000000	-0.0200000000000000	-0.337000000000000	-0.264000000000000	0.293000000000000	0.488000000000000	0.0340000000000000	-0.405000000000000	-0.479000000000000	-0.273000000000000	-0.854000000000000	-1.05000000000000	-0.747000000000000	-0.298000000000000	-0.288000000000000	0.244000000000000	0.376000000000000	-0.615000000000000	-0.596000000000000	-0.156000000000000	-0.737000000000000	-0.640000000000000	-0.332000000000000	-0.156000000000000	0.0830000000000000	0.532000000000000	0.234000000000000	0.0630000000000000	0.0630000000000000	0.352000000000000	0.664000000000000	0.283000000000000	0.586000000000000	0.835000000000000	0.342000000000000	0.127000000000000	0.493000000000000	0.332000000000000	0.0880000000000000	0.0980000000000000	0.264000000000000	0.684000000000000	0.996000000000000	0.698000000000000	-0.0680000000000000	-0.190000000000000	-0.376000000000000	-0.400000000000000	0.288000000000000	0.796000000000000	0.483000000000000	-0.107000000000000	0.186000000000000	0.342000000000000	-0.0730000000000000	-0.181000000000000	0.151000000000000	0.117000000000000	-0.142000000000000	-0.396000000000000	-0.171000000000000	0.288000000000000	0.327000000000000	-0.0780000000000000	0.186000000000000	0.718000000000000	0.117000000000000	-0.0590000000000000	0.103000000000000	0.537000000000000	0.415000000000000	0.107000000000000	0.298000000000000	0.630000000000000	0.0540000000000000	-0.581000000000000	0.430000000000000	0.376000000000000	-0.742000000000000	-0.361000000000000	-0.171000000000000	0.132000000000000	0.0150000000000000	0.356000000000000	0.269000000000000	-0.112000000000000	-0.688000000000000	-0.649000000000000	0.244000000000000	-0.229000000000000	-0.420000000000000	-0.0830000000000000	0.356000000000000	0.181000000000000	0.151000000000000	0.103000000000000	0.0440000000000000	0.0200000000000000	-0.332000000000000	-0.459000000000000	0.0290000000000000	0.308000000000000	-0.269000000000000	-0.942000000000000	-0.942000000000000	-0.195000000000000	-0.132000000000000	-0.381000000000000	0.200000000000000	1.24500000000000	0.547000000000000	-0.723000000000000	-0.269000000000000	0.425000000000000	0.0490000000000000	-0.225000000000000	-0.0100000000000000	-0.0980000000000000	-0.386000000000000	-0.0540000000000000	0.566000000000000	0.859000000000000	0.635000000000000	0.352000000000000	0.420000000000000	0.459000000000000	-0.288000000000000	-0.557000000000000	-0.254000000000000	0.0680000000000000	0.0100000000000000	-0.103000000000000	0.210000000000000	0.508000000000000	0.0540000000000000	-0.430000000000000	0.00500000000000000	0.176000000000000	-0.0830000000000000	-0.356000000000000	-0.166000000000000	0.293000000000000	0.332000000000000	0.137000000000000	0.317000000000000	0.688000000000000	0.0490000000000000	0.0490000000000000	0.498000000000000	0.0980000000000000	-0.0200000000000000	0.0830000000000000	-0.0490000000000000	0.586000000000000	0.752000000000000	0.103000000000000	0.308000000000000	0.410000000000000	-0.171000000000000	-0.942000000000000	-0.229000000000000	-0.137000000000000	-0.156000000000000	-0.107000000000000	0.161000000000000	0.630000000000000	0.205000000000000	0.371000000000000	0.381000000000000	-0.142000000000000	-0.610000000000000	-0.732000000000000	-0.464000000000000	0.200000000000000	0.132000000000000	0.117000000000000	0.298000000000000	0.342000000000000	-0.0490000000000000	-0.435000000000000	-0.244000000000000	0.0780000000000000	0.171000000000000	-0.0730000000000000	0.0930000000000000	0.532000000000000	-0.723000000000000	-0.591000000000000	0.181000000000000	-0.112000000000000	-0.142000000000000	0.0100000000000000	-0.220000000000000	-0.156000000000000	0.547000000000000	0.630000000000000	0.146000000000000	-0.708000000000000	-0.928000000000000	-0.845000000000000	-0.269000000000000	0.0440000000000000	-0.0980000000000000	-0.371000000000000	-0.308000000000000	0.278000000000000	0.205000000000000	0.0930000000000000	-0.693000000000000	-0.488000000000000	-0.176000000000000	-0.107000000000000	0.0290000000000000	0.278000000000000	0.176000000000000	-0.0880000000000000	-0.0200000000000000	-0.474000000000000	-0.410000000000000	-0.396000000000000	-0.0340000000000000	0.547000000000000	0.601000000000000	-0.347000000000000	0.210000000000000	1.47900000000000	0.308000000000000	-0.679000000000000	-0.669000000000000	-0.151000000000000	-0.625000000000000	-0.254000000000000	0.0880000000000000	0.596000000000000	0.586000000000000	0.332000000000000	0.605000000000000	1.02500000000000	0.488000000000000	-0.312000000000000	-0.273000000000000	0.342000000000000	0.532000000000000	-0.186000000000000	-0.151000000000000	0.356000000000000	0.151000000000000	0.0390000000000000	0.674000000000000	0.679000000000000	0.0200000000000000	-0.278000000000000	-0.0590000000000000	0.259000000000000	-0.0100000000000000	-0.688000000000000	-0.479000000000000	0.352000000000000	0.264000000000000	-0.215000000000000	-0.215000000000000	-0.264000000000000	-0.171000000000000	-0.298000000000000	-0.210000000000000	-0.0780000000000000	-0.454000000000000	-0.107000000000000	0.435000000000000	0.166000000000000	-0.0830000000000000	-0.151000000000000	0.0540000000000000	0.601000000000000	0.854000000000000	-0.283000000000000	-0.264000000000000	0.308000000000000	0.483000000000000	-0.659000000000000	-0.122000000000000	0.640000000000000	0.342000000000000	-0.0290000000000000	0.142000000000000	0.957000000000000	-0.0540000000000000	-0.225000000000000	0.264000000000000	0.410000000000000	0.234000000000000	-0.0540000000000000	0.0100000000000000	0.444000000000000	-0.210000000000000	-0.776000000000000	-0.317000000000000	0.205000000000000	0.0290000000000000	-0.151000000000000	0.195000000000000	0.630000000000000	0.762000000000000	-0.605000000000000	-0.659000000000000	-0.479000000000000	-0.483000000000000	-0.293000000000000	0.215000000000000	0.254000000000000	0.0590000000000000	-0.0930000000000000	0.610000000000000	1.41100000000000	0.420000000000000	-0.527000000000000	-0.430000000000000	0	0.361000000000000	0.337000000000000	-0.0240000000000000	0.771000000000000	0.269000000000000	-0.0240000000000000	0.210000000000000	0.254000000000000	0.156000000000000	-0.0540000000000000	0.317000000000000	0.493000000000000	0.205000000000000	0.156000000000000	0.386000000000000	0.796000000000000	0.259000000000000	-0.586000000000000	-0.913000000000000	-0.166000000000000	-0.205000000000000	-0.303000000000000	-0.117000000000000	0.356000000000000	0.562000000000000	-0.0830000000000000	0.0440000000000000	0.376000000000000	0.190000000000000	-0.308000000000000	-0.146000000000000	0.0680000000000000	0.137000000000000	-0.127000000000000	-0.0100000000000000	0.635000000000000	0.737000000000000	0.620000000000000	0.479000000000000	0.0290000000000000	-0.293000000000000	-0.327000000000000	0.0880000000000000	0.0680000000000000	0.303000000000000	-0.0100000000000000	0.0680000000000000	0.156000000000000	-0.186000000000000	-0.225000000000000	0.161000000000000	0.815000000000000	0.449000000000000	-0.0680000000000000	-0.400000000000000	0.0290000000000000	-0.229000000000000	-0.337000000000000	0.181000000000000	0.649000000000000	0.415000000000000	0.0290000000000000	0.0590000000000000	0.205000000000000	0.166000000000000	-0.361000000000000	-0.288000000000000	0.142000000000000	-0.264000000000000	-0.601000000000000	0.103000000000000	0.903000000000000	0.581000000000000	-0.532000000000000	-0.371000000000000	0.137000000000000	0.122000000000000	-0.0200000000000000	0.00500000000000000	0.308000000000000	-0.293000000000000	-0.332000000000000	0.537000000000000	0.527000000000000	0.381000000000000	-0.366000000000000	-0.430000000000000	0.103000000000000	-0.151000000000000	-0.371000000000000	-0.0150000000000000	0.610000000000000	0.659000000000000	-0.117000000000000	-0.327000000000000	0.239000000000000	-0.0100000000000000	-0.259000000000000	-0.156000000000000	0.0290000000000000	0.0730000000000000	-0.317000000000000	-0.664000000000000	-0.200000000000000	0.815000000000000	0.0780000000000000	-0.0290000000000000	0.435000000000000	0.430000000000000	0.776000000000000	0.937000000000000	0.146000000000000	0.249000000000000	0.0540000000000000	0.234000000000000	0.903000000000000	0.864000000000000	-0.234000000000000	-0.186000000000000	0.698000000000000	0.767000000000000	0.288000000000000	0.317000000000000	0.581000000000000	0.713000000000000	-0.0540000000000000	-0.210000000000000	0.0240000000000000	-0.112000000000000	-0.479000000000000	-0.312000000000000	0.400000000000000	0.371000000000000	-0.342000000000000	-0.845000000000000	-0.444000000000000	-0.376000000000000	-0.596000000000000	-0.283000000000000	-0.0340000000000000	-0.459000000000000	-0.601000000000000	-0.249000000000000	0.425000000000000	0.728000000000000	-0.405000000000000	-0.698000000000000	-0.142000000000000	-0.298000000000000	-0.532000000000000	-0.449000000000000	-0.00500000000000000	0.322000000000000	0.371000000000000	-0.0240000000000000	-0.00500000000000000	0.308000000000000	0	0.0880000000000000	0.0540000000000000	-0.366000000000000	-0.522000000000000	-0.00500000000000000	0.601000000000000	0.747000000000000	-0.103000000000000	-0.142000000000000	-0.381000000000000	-0.0340000000000000	0.127000000000000	0.103000000000000	-0.273000000000000	0.352000000000000	0.728000000000000	0.718000000000000	0.918000000000000	0.605000000000000	-0.0730000000000000	-0.0680000000000000	0.522000000000000	0.132000000000000	-0.239000000000000	-0.181000000000000	0.142000000000000	0.342000000000000	-0.0630000000000000	0.225000000000000	0.894000000000000	0.0630000000000000	-0.405000000000000	-0.0930000000000000	0.0780000000000000	-0.0540000000000000	-0.356000000000000	-0.181000000000000	0.454000000000000	0.483000000000000	-0.391000000000000	-0.781000000000000	0.107000000000000	0.186000000000000	0.112000000000000	-0.728000000000000	-0.405000000000000	0.317000000000000	-0.00500000000000000	-0.0440000000000000	0.137000000000000	-0.0590000000000000	-0.220000000000000	-0.381000000000000	0.0540000000000000	-0.127000000000000	-0.913000000000000	-0.972000000000000	-0.239000000000000	0.137000000000000	-0.601000000000000	-0.464000000000000	0.869000000000000	0.298000000000000	-1.04000000000000	-0.581000000000000	-0.557000000000000	-0.571000000000000	-0.601000000000000	0.0730000000000000	0.176000000000000	-0.342000000000000	-0.854000000000000	-0.522000000000000	0.200000000000000	0.464000000000000	0.415000000000000	0.0880000000000000	0.391000000000000	0.312000000000000	-0.259000000000000	-0.195000000000000	0.122000000000000	0.0630000000000000	-0.166000000000000	0.00500000000000000	0.308000000000000	0.571000000000000	0.0680000000000000	0.132000000000000	0.542000000000000	0.278000000000000	-0.0980000000000000	0.396000000000000	0.464000000000000	0.415000000000000	0.376000000000000	0.508000000000000	1.06000000000000	1.07900000000000	0.659000000000000	0.498000000000000	0.708000000000000	0.430000000000000	-0.215000000000000	0.190000000000000	0.645000000000000	0.444000000000000	-0.479000000000000	-0.0440000000000000	0.527000000000000	0.171000000000000	0.0630000000000000	0.0830000000000000	-0.249000000000000	-0.474000000000000	-0.522000000000000	-0.615000000000000	-0.176000000000000	-0.181000000000000	-0.732000000000000	-0.898000000000000	-0.312000000000000	-0.298000000000000	-0.474000000000000	-0.366000000000000	-0.288000000000000	-0.278000000000000	-0.298000000000000	-0.0930000000000000	0.0590000000000000	-0.669000000000000	-0.522000000000000	-0.151000000000000	0.00500000000000000	-0.0340000000000000	-0.239000000000000	-0.322000000000000	-0.0340000000000000	-0.308000000000000	-1.13800000000000	-0.469000000000000	0.142000000000000	-0.112000000000000	-0.474000000000000	-0.498000000000000	-0.176000000000000	0.498000000000000	-0.288000000000000	-0.625000000000000	-0.166000000000000	-0.518000000000000	-0.850000000000000	-0.425000000000000	0.991000000000000	0.547000000000000	-0.347000000000000	-0.630000000000000	0.273000000000000	1.27000000000000	0.210000000000000	-0.371000000000000	0.220000000000000	0.137000000000000	-0.352000000000000	0.469000000000000	0.718000000000000	0.596000000000000	-0.220000000000000	-0.181000000000000	0.649000000000000	0.195000000000000	-0.146000000000000	0.195000000000000	0.405000000000000	0.190000000000000	0.278000000000000	-0.195000000000000	0.122000000000000	0.151000000000000	-0.107000000000000	0.0150000000000000	0.293000000000000	0.00500000000000000	-0.244000000000000	0.0880000000000000	0.381000000000000	0.581000000000000	0.186000000000000	0.186000000000000	-0.366000000000000	-0.684000000000000	-0.571000000000000	-0.117000000000000	-0.161000000000000	-0.122000000000000	-0.273000000000000	-0.288000000000000	0.723000000000000	1.27000000000000	-0.103000000000000	-1.13800000000000	-0.239000000000000	-1.01600000000000	-1.44500000000000	-0.596000000000000	0.322000000000000	0.371000000000000	-0.293000000000000	-0.117000000000000	0.581000000000000	0.400000000000000	-0.308000000000000	-0.298000000000000	-0.0150000000000000	-0.0440000000000000	0	0.0290000000000000	0.513000000000000	0.381000000000000	0.0340000000000000	0.156000000000000	0.542000000000000	0	-0.0540000000000000	0.186000000000000	0.200000000000000	0.493000000000000	0.0590000000000000	0.151000000000000	0.483000000000000	0.0290000000000000	-0.425000000000000	-0.195000000000000	0.0830000000000000	-0.0830000000000000	-0.200000000000000	0.00500000000000000	-0.156000000000000	-0.00500000000000000	1.03500000000000	0.923000000000000	-0.391000000000000	-0.791000000000000	-0.903000000000000	-0.435000000000000	0.156000000000000	0.210000000000000	-0.181000000000000	-0.220000000000000	0.205000000000000	0.0490000000000000	-0.405000000000000	0.0240000000000000	0.273000000000000	-0.0240000000000000	-0.0390000000000000	0.0100000000000000	0.386000000000000	0.259000000000000	-0.645000000000000	-0.620000000000000	0.293000000000000	0.0630000000000000	-0.347000000000000	-0.366000000000000	-0.0340000000000000	0.386000000000000	-0.215000000000000	-0.205000000000000	0.142000000000000	0.0980000000000000	-0.332000000000000	-0.527000000000000	-0.0340000000000000	0.796000000000000	0.0830000000000000	-0.825000000000000	0.0290000000000000	0.381000000000000	-0.181000000000000	0.776000000000000	1.12800000000000	-0.205000000000000	-1.03500000000000	-0.977000000000000	-0.547000000000000	0.273000000000000	-0.103000000000000	-0.586000000000000	0.220000000000000	0.444000000000000	-0.127000000000000	-0.156000000000000	-0.0780000000000000	-0.264000000000000	-0.464000000000000	-0.430000000000000	0.0880000000000000	0.156000000000000	-0.117000000000000	-0.225000000000000	0.220000000000000	0.122000000000000	0.518000000000000	-0.0930000000000000	-0.107000000000000	0.645000000000000	0.430000000000000	0.459000000000000	0.771000000000000	0.693000000000000	0.273000000000000	0.410000000000000	0.361000000000000	0.586000000000000	0.0490000000000000	0.0290000000000000	0.586000000000000	0.464000000000000	-0.181000000000000	-0.0630000000000000	0.513000000000000	0.156000000000000	-0.239000000000000	-0.254000000000000	0.0200000000000000	-0.522000000000000	-0.532000000000000	-0.396000000000000	-0.571000000000000	-0.479000000000000	-0.806000000000000	-0.620000000000000	0.654000000000000	0.781000000000000	-0.605000000000000	-0.771000000000000	-0.518000000000000	-0.225000000000000	-0.0830000000000000	-0.835000000000000	-0.322000000000000	0.103000000000000	-0.303000000000000	-0.347000000000000	0.151000000000000	0.493000000000000	0.171000000000000	0.151000000000000	-0.0830000000000000	-0.156000000000000	-0.474000000000000	-0.474000000000000	-0.0880000000000000	0.234000000000000	0.0440000000000000	-0.117000000000000	0.327000000000000	0.327000000000000	-0.0780000000000000	0.186000000000000	0.615000000000000	0.151000000000000	-0.215000000000000	-0.601000000000000	-0.459000000000000	0.327000000000000	0.181000000000000	0.308000000000000	0.391000000000000	0.0830000000000000	-0.381000000000000	0.0100000000000000	0.361000000000000	0.386000000000000	0.151000000000000	0.205000000000000	0.571000000000000	0.747000000000000	-0.0540000000000000	-0.0830000000000000	0.620000000000000	0.430000000000000	0.0200000000000000	0.0980000000000000	-0.166000000000000	0.420000000000000	0.532000000000000	-0.151000000000000	0.552000000000000	0.566000000000000	-0.0680000000000000	-0.205000000000000	-0.0490000000000000	0.0780000000000000	-0.181000000000000	-0.376000000000000	0.308000000000000	0.205000000000000	-0.425000000000000	-0.488000000000000	-0.352000000000000	-0.698000000000000	-0.713000000000000	-0.630000000000000	-0.312000000000000	0.0930000000000000	-0.366000000000000	-0.518000000000000	-0.142000000000000	-0.0540000000000000	-0.420000000000000	-0.254000000000000	-0.0440000000000000	0.161000000000000	-0.342000000000000	-0.679000000000000	0.0830000000000000	0.215000000000000	-0.425000000000000	-0.444000000000000	0.142000000000000	0.0200000000000000	-0.254000000000000	-0.288000000000000	0.146000000000000	0.288000000000000	-0.483000000000000	-0.527000000000000	-0.522000000000000	-0.913000000000000	-1.21100000000000	-0.962000000000000	-0.298000000000000	1.49900000000000	0.913000000000000	-0.586000000000000	-0.605000000000000	-0.566000000000000	-0.410000000000000	-0.391000000000000	0.0540000000000000	0.151000000000000	0.342000000000000	-0.498000000000000	0.0730000000000000	0.767000000000000	0.469000000000000	0.376000000000000	0.581000000000000	0.493000000000000	-0.0490000000000000	0.488000000000000	0.723000000000000	0.635000000000000	0.269000000000000	-0.107000000000000	0.654000000000000	1.12300000000000	1.18200000000000	0.850000000000000	0.474000000000000	0.269000000000000	-0.0830000000000000	-0.322000000000000	0.464000000000000	0.977000000000000	0.112000000000000	-0.273000000000000	0.371000000000000	0.684000000000000	0.0200000000000000	-0.449000000000000	-0.229000000000000	0.0730000000000000	-0.259000000000000	-0.474000000000000	-0.0880000000000000	0.0440000000000000	-0.151000000000000	-0.239000000000000	-0.122000000000000	-0.171000000000000	-0.537000000000000	-1.18200000000000	-1.57700000000000	-0.317000000000000	-0.312000000000000	-0.195000000000000	0.518000000000000	-0.400000000000000	-0.811000000000000	0.137000000000000	0.376000000000000	0.0680000000000000	-0.581000000000000	-0.605000000000000	-0.0340000000000000	0.386000000000000	0.469000000000000	0.347000000000000	-0.0440000000000000	-0.0590000000000000	-0.303000000000000	-0.146000000000000	0.581000000000000	0.737000000000000	0.220000000000000	-0.396000000000000	0.0200000000000000	0.210000000000000	-0.186000000000000	-0.142000000000000	-0.0150000000000000	0	-0.244000000000000	-0.317000000000000	-0.0150000000000000	-0.273000000000000	-0.728000000000000	-0.474000000000000	0.317000000000000	-0.400000000000000	-0.937000000000000	-0.762000000000000	0.0680000000000000	1.37700000000000	0.469000000000000	0.00500000000000000	-0.503000000000000	-0.0630000000000000	0.713000000000000	1.00600000000000	0.615000000000000	0.127000000000000	0.0930000000000000	0.151000000000000	0.571000000000000	0.400000000000000	-0.0150000000000000	-0.249000000000000	0.259000000000000	0.200000000000000	-0.234000000000000	-0.640000000000000	-0.259000000000000	0.308000000000000	-0.234000000000000	-0.601000000000000	-0.391000000000000	-0.332000000000000	-1.74800000000000	-0.845000000000000	-0.308000000000000	-0.469000000000000	-0.591000000000000	-0.464000000000000	0.0490000000000000	0.688000000000000	0.493000000000000	0.0290000000000000	0.430000000000000	-0.0200000000000000	-0.459000000000000	-0.654000000000000	-0.142000000000000	0.537000000000000	0.503000000000000	0.444000000000000	0.718000000000000	0.620000000000000	-0.166000000000000	0.210000000000000	0.703000000000000	0.552000000000000	0.137000000000000	-0.488000000000000	-0.273000000000000	0.0880000000000000	-0.200000000000000	-0.439000000000000	-0.0490000000000000	0.0880000000000000	0.200000000000000	0.278000000000000	-0.327000000000000	-0.210000000000000	-0.400000000000000	-0.322000000000000	-0.229000000000000	0.0490000000000000	0.190000000000000	0.288000000000000	0.439000000000000	0.0240000000000000	-0.0930000000000000	-0.0290000000000000	0.273000000000000	0.273000000000000	-0.259000000000000	-0.298000000000000	0.527000000000000	0.513000000000000	0.0100000000000000	-0.405000000000000	-0.259000000000000	0.366000000000000	0.0730000000000000	-0.122000000000000	-0.181000000000000	-0.386000000000000	-0.605000000000000	-0.586000000000000	-0.400000000000000	-0.386000000000000	-0.649000000000000	-0.557000000000000	0.0390000000000000	0.649000000000000	0.371000000000000	-0.186000000000000	0.0440000000000000	-0.0490000000000000	-1.00100000000000	-1.05500000000000	-0.0590000000000000	0.601000000000000	0.371000000000000	0.0930000000000000	0.259000000000000	0.537000000000000	0.249000000000000	0.269000000000000	0.474000000000000	0.547000000000000	0.234000000000000	0.0390000000000000	0.322000000000000	0.449000000000000	0.0780000000000000	-0.151000000000000	0.288000000000000	0.171000000000000	-0.142000000000000	-0.269000000000000	0	0.327000000000000	0.0390000000000000	-0.220000000000000	-0.0880000000000000	0.0630000000000000	-0.649000000000000	-0.806000000000000	-0.566000000000000	-0.0630000000000000	-0.156000000000000	-0.151000000000000	0.605000000000000	0.356000000000000	0.747000000000000	0.947000000000000	0.220000000000000	-0.0540000000000000	-0.117000000000000	0.0390000000000000	0.244000000000000	0.615000000000000	0.625000000000000	0.264000000000000	0.166000000000000	0.225000000000000	-0.0440000000000000	0.444000000000000	0.728000000000000	1.05500000000000	1.00600000000000	0.176000000000000	-0.591000000000000	-0.591000000000000	-0.537000000000000	-0.449000000000000	-0.234000000000000	-0.303000000000000	-0.312000000000000	-0.381000000000000	-0.0980000000000000	0.308000000000000	0.430000000000000	-0.527000000000000	-0.444000000000000	0.186000000000000	-0.0630000000000000	-0.0880000000000000	0.0390000000000000	0.0630000000000000	-0.190000000000000	-0.449000000000000	-0.298000000000000	-0.0240000000000000	0.249000000000000	0.117000000000000	0.220000000000000	-0.610000000000000	-0.361000000000000	0.0880000000000000	1.07400000000000	0.991000000000000	-0.513000000000000	-1.09400000000000	0.0340000000000000	0.308000000000000	-0.498000000000000	-0.225000000000000	0.273000000000000	0.293000000000000	0.303000000000000	0.269000000000000	0.317000000000000	0.190000000000000	-0.317000000000000	-0.757000000000000	-0.386000000000000	-0.625000000000000	-0.732000000000000	-0.757000000000000	-0.405000000000000	-0.156000000000000	-0.0390000000000000	0.0290000000000000	0.762000000000000	0.913000000000000	-0.737000000000000	-1.05500000000000	-0.366000000000000	0.161000000000000	0.181000000000000	-0.0930000000000000	0.181000000000000	0.542000000000000	0.229000000000000	0.181000000000000	0.752000000000000	0.103000000000000	-0.483000000000000	0.122000000000000	-0.244000000000000	0.0830000000000000	0.210000000000000	0.0440000000000000	0.273000000000000	0.342000000000000	-0.610000000000000	-0.591000000000000	-0.381000000000000	-0.278000000000000	-0.0630000000000000	0.107000000000000	-0.254000000000000	0.0630000000000000	-0.117000000000000	-0.142000000000000	0.708000000000000	-0.151000000000000	-0.845000000000000	-0.723000000000000	-0.410000000000000	0.151000000000000	0.269000000000000	0.0100000000000000	-0.117000000000000	0.439000000000000	-0.0630000000000000	-0.674000000000000	-0.107000000000000	-0.747000000000000	-0.366000000000000	-0.0100000000000000	0.356000000000000	0.537000000000000	-0.142000000000000	-0.571000000000000	-0.00500000000000000	0	-0.479000000000000	-0.576000000000000	0.225000000000000	0.615000000000000	-0.0200000000000000	-0.391000000000000	-0.0100000000000000	0.327000000000000	0.0630000000000000	0.352000000000000	-0.181000000000000	0.132000000000000	0.420000000000000	0.376000000000000	0.415000000000000	0.420000000000000	0.166000000000000	-0.142000000000000	0.166000000000000	0.439000000000000	0.0440000000000000	-0.532000000000000	-0.220000000000000	0.684000000000000	0.508000000000000	0.0200000000000000	0.425000000000000	0.732000000000000	0.288000000000000	-1.02500000000000	-0.0390000000000000	0.415000000000000	0.0780000000000000	-0.161000000000000	0.283000000000000	0.684000000000000	0.444000000000000	0.264000000000000	0.278000000000000	-0.0100000000000000	-0.688000000000000	-0.767000000000000	-0.190000000000000	0.303000000000000	-0.00500000000000000	-0.547000000000000	-0.288000000000000	-0.00500000000000000	-0.640000000000000	-0.996000000000000	-1.00100000000000	-0.469000000000000	-0.132000000000000	-0.0150000000000000	-0.649000000000000	-0.571000000000000	-0.796000000000000	-1.08400000000000	-0.723000000000000	-0.293000000000000	-0.273000000000000	-0.137000000000000	-0.322000000000000	-0.259000000000000	-0.205000000000000	-0.483000000000000	-0.312000000000000	0.0980000000000000	0.405000000000000	1.01600000000000	0.410000000000000	0.654000000000000	-0.0680000000000000	0.200000000000000	0.991000000000000	0.830000000000000	-0.0200000000000000	-0.220000000000000	0.479000000000000	0.801000000000000	0.366000000000000	-0.0440000000000000	0.132000000000000	0.562000000000000	0.586000000000000	0.0930000000000000	-0.156000000000000	0.137000000000000	-0.0540000000000000	-0.127000000000000	0.342000000000000	0.308000000000000	-0.0340000000000000	-0.220000000000000	-0.381000000000000	0.312000000000000	1.05000000000000	0.0150000000000000	-0.308000000000000	-0.435000000000000	-0.278000000000000	-0.244000000000000	0.0590000000000000	0.420000000000000	0.269000000000000	-0.122000000000000	-0.0200000000000000	0.454000000000000	0.0780000000000000	-0.518000000000000	-0.645000000000000	-0.186000000000000	-0.0680000000000000	-0.220000000000000	0.269000000000000	0.459000000000000	0	-0.161000000000000	0.430000000000000	0.532000000000000	-0.449000000000000	-0.850000000000000	0.0440000000000000	1.05500000000000	-0.103000000000000	-0.703000000000000	-0.459000000000000	0.156000000000000	0.142000000000000	0.527000000000000	0.596000000000000	-0.0100000000000000	-0.649000000000000	-0.464000000000000	0.186000000000000	0.396000000000000	-0.0590000000000000	-0.366000000000000	-0.156000000000000	0.0880000000000000	0.371000000000000	0.0980000000000000	-0.0830000000000000	-0.547000000000000	-0.190000000000000	-0.361000000000000	0.581000000000000	1.49400000000000	0.210000000000000	-0.322000000000000	-0.103000000000000	-0.0390000000000000	-0.303000000000000	0.0930000000000000	0.303000000000000	0.273000000000000	0.327000000000000	0.151000000000000	0.532000000000000	0.566000000000000	0.0200000000000000	-0.747000000000000	-0.479000000000000	0.0730000000000000	0.156000000000000	-0.171000000000000	-0.142000000000000	0.776000000000000	0.381000000000000	-0.176000000000000	-0.166000000000000	-0.0150000000000000	-0.225000000000000	-0.239000000000000	-0.259000000000000	0.229000000000000	0.122000000000000	-0.0290000000000000	0.107000000000000	-0.107000000000000	-0.347000000000000	-0.479000000000000	-0.293000000000000	0.0630000000000000	0.347000000000000	0.234000000000000	-1.06400000000000	-0.723000000000000	0.269000000000000	-0.698000000000000	-0.620000000000000	-0.347000000000000	-0.474000000000000	-0.190000000000000	-0.161000000000000	-0.308000000000000	-0.190000000000000	0.430000000000000	0.229000000000000	0.0930000000000000	-0.327000000000000	-0.410000000000000	0.00500000000000000	0.0730000000000000	0.376000000000000	0.00500000000000000	0.347000000000000	0.898000000000000	0.430000000000000	0.347000000000000	1.07400000000000	0.635000000000000	0.391000000000000	0.659000000000000	0.713000000000000	0.200000000000000	-0.176000000000000	-0.439000000000000	-0.0290000000000000	0.361000000000000	0.0540000000000000	-0.273000000000000	0.0150000000000000	0.474000000000000	0.669000000000000	0.249000000000000	-0.181000000000000	-0.288000000000000	-0.596000000000000	-0.278000000000000	0.322000000000000	0.576000000000000	0.332000000000000	0.0590000000000000	-0.0240000000000000	0.469000000000000	-0.0390000000000000	-0.283000000000000	-0.107000000000000	0.176000000000000	-0.0240000000000000	-0.640000000000000	-0.0440000000000000	0.415000000000000	1.05500000000000	-0.278000000000000	-0.771000000000000	-0.952000000000000	-0.933000000000000	-0.532000000000000	-0.171000000000000	-0.142000000000000	-0.264000000000000	-0.327000000000000	-0.234000000000000	0.693000000000000	0.562000000000000	-0.542000000000000	-0.894000000000000	-0.156000000000000	-0.503000000000000	-1.14700000000000	-0.654000000000000	0.254000000000000	0.488000000000000	0.0930000000000000	0.444000000000000	0.605000000000000	-0.327000000000000	-0.825000000000000	-0.00500000000000000	0.483000000000000	-0.0100000000000000	0.322000000000000	0.913000000000000	0.415000000000000	0.156000000000000	0.0200000000000000	0.410000000000000	-0.337000000000000	-0.317000000000000	0.244000000000000	0.186000000000000	0.464000000000000	0.483000000000000	-0.0240000000000000	0.0540000000000000	0.283000000000000	-0.430000000000000	-0.859000000000000	-0.474000000000000	0.391000000000000	-0.00500000000000000	-0.210000000000000	-0.156000000000000	-0.0440000000000000	-0.137000000000000	-0.356000000000000	0	0.186000000000000	-0.264000000000000	-0.474000000000000	-0.0540000000000000	0.171000000000000	0.181000000000000	0.278000000000000	0.688000000000000	0.732000000000000	-0.244000000000000	-0.151000000000000	-0.474000000000000	0.151000000000000	0.298000000000000	-0.0100000000000000	-0.166000000000000	0.0440000000000000	0.166000000000000	0.259000000000000	0.737000000000000	0.210000000000000	-0.571000000000000	-0.806000000000000	-0.469000000000000	-0.0200000000000000	0.146000000000000	-0.420000000000000	-0.332000000000000	-0.146000000000000	-0.439000000000000	-0.454000000000000	-0.146000000000000	0.0630000000000000	0.0240000000000000	0.718000000000000	0.298000000000000	-0.405000000000000	-0.562000000000000	-0.732000000000000	-0.146000000000000	0.181000000000000	0.0680000000000000	-0.0630000000000000	-0.0240000000000000	0.205000000000000	0.532000000000000	0.249000000000000	-0.0490000000000000	-0.293000000000000	-0.454000000000000	-0.459000000000000	0.0780000000000000	0.757000000000000	0.669000000000000	0.0100000000000000	0.293000000000000	0.640000000000000	0.200000000000000	-0.503000000000000	-0.186000000000000	0.371000000000000	0.181000000000000	0.0930000000000000	-0.0880000000000000	-0.615000000000000	-0.103000000000000	0	-0.0440000000000000	0.0830000000000000	-0.327000000000000	-0.654000000000000	0.127000000000000	-0.0340000000000000	-0.791000000000000	-0.640000000000000	-0.439000000000000	-0.0780000000000000	-0.0830000000000000	-0.308000000000000	-0.0780000000000000	-0.0980000000000000	-0.430000000000000	-0.596000000000000	-0.327000000000000	0.259000000000000	0.532000000000000	-0.303000000000000	-0.205000000000000	0.229000000000000	-0.137000000000000	-0.249000000000000	0.171000000000000	0.239000000000000	-0.137000000000000	0.151000000000000	0.581000000000000	0.762000000000000	-0.298000000000000	-0.957000000000000	-0.0540000000000000	0.327000000000000	0.249000000000000	-0.186000000000000	-0.303000000000000	-0.00500000000000000	0.215000000000000	-0.107000000000000	0.0150000000000000	1.05500000000000	-0.391000000000000	-0.747000000000000	-0.0980000000000000	0.322000000000000	-0.122000000000000	-0.820000000000000	-0.674000000000000	-0.156000000000000	-0.0730000000000000	0.0340000000000000	0.474000000000000	0.718000000000000	0.132000000000000	-0.127000000000000	-0.327000000000000	0.107000000000000	-0.508000000000000	-0.601000000000000	-0.156000000000000	0.483000000000000	0.435000000000000	0.693000000000000	0.483000000000000	-0.205000000000000	-0.171000000000000	-0.195000000000000	-0.366000000000000	0.205000000000000	0.293000000000000	-0.151000000000000	0.269000000000000	1.30900000000000	0.171000000000000	-0.942000000000000	-0.742000000000000	-0.332000000000000	-0.00500000000000000	-0.0980000000000000	0.0100000000000000	0.259000000000000	0.122000000000000	0.0340000000000000	0.396000000000000	0.698000000000000	0.918000000000000	0.400000000000000	-0.0630000000000000	0.303000000000000	0.503000000000000	0.298000000000000	0.264000000000000	0.605000000000000	0.225000000000000	-0.0980000000000000	-0.0540000000000000	0.635000000000000	1.04000000000000	0.488000000000000	-0.186000000000000	-0.0540000000000000	-0.459000000000000	-0.410000000000000	0.298000000000000	0.464000000000000	0.435000000000000	-0.249000000000000	-0.771000000000000	0.0340000000000000	0.0200000000000000	-0.527000000000000	-0.176000000000000	0.186000000000000	-0.186000000000000	-0.425000000000000	-0.283000000000000	-0.0980000000000000	0.205000000000000	-0.269000000000000	-0.337000000000000	-0.127000000000000	-0.630000000000000	-1.11800000000000	-0.732000000000000	0.0930000000000000	0.195000000000000	-0.244000000000000	-0.322000000000000	-0.0440000000000000	0.156000000000000	0.439000000000000	0.112000000000000	-0.376000000000000	-0.981000000000000	-0.962000000000000	-0.273000000000000	0.303000000000000	0.420000000000000	0.146000000000000	0.283000000000000	0.337000000000000	-0.132000000000000	-0.234000000000000	0.161000000000000	0.181000000000000	0.117000000000000	0.0590000000000000	0.00500000000000000	0.459000000000000	0.356000000000000	-0.107000000000000	0.220000000000000	0.264000000000000	0.225000000000000	0.0150000000000000	-1.06900000000000	-0.386000000000000	0.327000000000000	-0.107000000000000	-0.405000000000000	-0.371000000000000	-0.537000000000000	-0.571000000000000	0.488000000000000	0.581000000000000	-0.513000000000000	-0.576000000000000	0.225000000000000	0.815000000000000	-0.195000000000000	-0.610000000000000	-0.0830000000000000	0.786000000000000	0.0980000000000000	0.254000000000000	0.527000000000000	0.435000000000000	0.288000000000000	0.0240000000000000	0.352000000000000	0.669000000000000	0.396000000000000	0.146000000000000	0.308000000000000	0.464000000000000	0.303000000000000	0.142000000000000	0.181000000000000	0.562000000000000	0.449000000000000	-0.0680000000000000	0.161000000000000	0.229000000000000	-0.0340000000000000	-0.200000000000000	-0.0730000000000000	-0.244000000000000	0.0440000000000000	-0.151000000000000	-0.576000000000000	-0.249000000000000	-0.161000000000000	0.0340000000000000	-0.298000000000000	0.728000000000000	0.513000000000000	-0.615000000000000	-0.947000000000000	-0.420000000000000	-0.112000000000000	0.137000000000000	0.0440000000000000	-0.0240000000000000	0.0630000000000000	-0.0150000000000000	-0.0100000000000000	-0.288000000000000	0.522000000000000	0.361000000000000	0.229000000000000	0.454000000000000	0.229000000000000	-0.181000000000000	0.0240000000000000	0.190000000000000	0.0680000000000000	0.0630000000000000	-0.0290000000000000	0.405000000000000	0.293000000000000	-0.171000000000000	-0.396000000000000	-0.0200000000000000	-0.142000000000000	-0.200000000000000	-0.190000000000000	-0.288000000000000	0.181000000000000	0.107000000000000	0.244000000000000	0.508000000000000	-0.342000000000000	-1.07400000000000	-0.752000000000000	-0.244000000000000	-0.571000000000000	-0.273000000000000	0.00500000000000000	0.811000000000000	1.75800000000000	0.225000000000000	-0.937000000000000	0.0100000000000000	-0.435000000000000	-0.937000000000000	-0.303000000000000	0.176000000000000	0.405000000000000	0.132000000000000	0.396000000000000	0.820000000000000	0.171000000000000	-0.688000000000000	-0.601000000000000	0.273000000000000	0.356000000000000	0.137000000000000	-0.0240000000000000	0.312000000000000	0.176000000000000	-0.522000000000000	-0.566000000000000	-0.327000000000000	-0.283000000000000	-0.0780000000000000	-0.0830000000000000	0.00500000000000000	0.425000000000000	0.571000000000000	0.918000000000000	0.811000000000000	0.156000000000000	-1.30400000000000	-0.869000000000000	-0.142000000000000	0.522000000000000	0.728000000000000	0.610000000000000	0.825000000000000	0.444000000000000	-0.0240000000000000	0.483000000000000	0.483000000000000	-0.0680000000000000	0.0340000000000000	-0.454000000000000	-0.117000000000000	-0.0440000000000000	-0.386000000000000	-0.117000000000000	0.293000000000000	0.151000000000000	-0.146000000000000	-0.0980000000000000	-0.405000000000000	-0.464000000000000	-0.542000000000000	-0.537000000000000	-0.200000000000000	-0.234000000000000	-0.742000000000000	-0.566000000000000	0	0.166000000000000	0.552000000000000	0.0240000000000000	-0.684000000000000	0.142000000000000	0.210000000000000	-0.225000000000000	-0.405000000000000	-0.0150000000000000	-0.00500000000000000	0.0680000000000000	0.430000000000000	0.420000000000000	0.161000000000000	0.0440000000000000	0.522000000000000	0.615000000000000	0.283000000000000	-0.518000000000000	0.0100000000000000	-0.0880000000000000	-0.444000000000000	-0.630000000000000	-0.312000000000000	0.0980000000000000	-0.308000000000000	-0.630000000000000	-0.352000000000000	-0.273000000000000	-0.605000000000000	-0.630000000000000	-0.430000000000000	-0.537000000000000	-0.679000000000000	-0.654000000000000	-0.249000000000000	-0.347000000000000	-0.728000000000000	-0.234000000000000	0.312000000000000	-0.288000000000000	-0.0490000000000000	0.645000000000000	0.435000000000000	0.142000000000000	0.112000000000000	0.615000000000000	1.25000000000000	0.723000000000000	-0.361000000000000	0.156000000000000	0.449000000000000	0.308000000000000	0.669000000000000	0.728000000000000	0.752000000000000	0.635000000000000	0.444000000000000	0.684000000000000	0.483000000000000	-0.244000000000000	-0.796000000000000	-0.640000000000000	-0.195000000000000	0.137000000000000	-0.220000000000000	-0.171000000000000	0.469000000000000	-0.249000000000000	-0.474000000000000	-0.825000000000000	0.0340000000000000	0.156000000000000	-0.0680000000000000	-0.151000000000000	0.366000000000000	0.322000000000000	-0.161000000000000	-0.225000000000000	0.386000000000000	0.303000000000000	-0.205000000000000	-0.562000000000000	-0.151000000000000	0.728000000000000	-0.146000000000000	-0.591000000000000	0.181000000000000	0.664000000000000	-0.0240000000000000	-0.112000000000000	0.176000000000000	0.0830000000000000	-0.112000000000000	-0.303000000000000	-0.127000000000000	-0.0830000000000000	-0.386000000000000	-0.635000000000000	-0.425000000000000	-0.576000000000000	-0.815000000000000	-0.723000000000000	-0.161000000000000	0.122000000000000	-0.547000000000000	-0.210000000000000	0.220000000000000	-0.420000000000000	-0.688000000000000	-0.142000000000000	0.229000000000000	0.229000000000000	0.0490000000000000	0.0540000000000000	0.547000000000000	0.210000000000000	-0.186000000000000	0.527000000000000	1.06900000000000	0.698000000000000	0.352000000000000	0.293000000000000	0.518000000000000	0.107000000000000	0.244000000000000	0	-0.396000000000000	-0.195000000000000	-0.405000000000000	-0.215000000000000	0.352000000000000	0.776000000000000	0.278000000000000	-0.0390000000000000	0.762000000000000	0.415000000000000	0.693000000000000	0.420000000000000	-0.518000000000000	-1.03500000000000	-0.630000000000000	0.151000000000000	0.547000000000000	0.952000000000000	0.483000000000000	0.0390000000000000	0.200000000000000	-0.0340000000000000	-0.483000000000000	-0.283000000000000	0.0100000000000000	-0.396000000000000	-0.596000000000000	-0.630000000000000	0.166000000000000	-0.278000000000000	-0.830000000000000	-0.518000000000000	-0.386000000000000	-0.693000000000000	-0.229000000000000	-0.835000000000000	-1.18700000000000	-0.229000000000000	-0.303000000000000	-0.420000000000000	-0.142000000000000	-0.298000000000000	-0.952000000000000	-0.542000000000000	-0.137000000000000	0.439000000000000	0.161000000000000	-0.186000000000000	0.0340000000000000	-0.273000000000000	-0.293000000000000	0.186000000000000	0.00500000000000000	-0.0980000000000000	-0.386000000000000	-0.317000000000000	-0.0490000000000000	0.464000000000000	0.239000000000000	-0.132000000000000	0.259000000000000	0.405000000000000	0.366000000000000	0.449000000000000	-0.0490000000000000	-0.205000000000000	-0.356000000000000	-0.156000000000000	0.469000000000000	0.620000000000000	0.200000000000000	0.205000000000000	0.596000000000000	0.0730000000000000	-0.586000000000000	-0.659000000000000	-0.0930000000000000	0.513000000000000	0.0290000000000000	-0.0930000000000000	0.200000000000000	0.332000000000000	-0.00500000000000000	0.0630000000000000	0.0540000000000000	0.0630000000000000	-0.0490000000000000	-0.229000000000000	0.117000000000000	0.449000000000000	-0.278000000000000	-0.474000000000000	0.146000000000000	0.161000000000000	-0.337000000000000	-0.381000000000000	0.0150000000000000	0.449000000000000	0.205000000000000	0.200000000000000	0.239000000000000	0.259000000000000	0	-0.0240000000000000	-0.449000000000000	-0.352000000000000	-0.474000000000000	-0.664000000000000	-0.229000000000000	-0.166000000000000	-0.547000000000000	-0.718000000000000	-0.190000000000000	0.498000000000000	0.0290000000000000	-0.981000000000000	-0.640000000000000	0.522000000000000	0.142000000000000	-0.420000000000000	-0.386000000000000	-0.278000000000000	-0.322000000000000	0.0730000000000000	0.444000000000000	0.142000000000000	-0.293000000000000	-0.352000000000000	0.0590000000000000	0.317000000000000	0.513000000000000	0.0200000000000000	0.688000000000000	0.137000000000000	-0.103000000000000	-0.552000000000000	-0.439000000000000	0.151000000000000	-0.596000000000000	-0.464000000000000	0.679000000000000	-0.0880000000000000	-0.581000000000000	0.0830000000000000	0.308000000000000	0.166000000000000	-0.0880000000000000	0.430000000000000	0.674000000000000	-0.210000000000000	-0.381000000000000	0.0240000000000000	0.488000000000000	0.249000000000000	-0.0240000000000000	-0.0730000000000000	0.151000000000000	0.439000000000000	0.195000000000000	0.142000000000000	0.371000000000000	0.439000000000000	0.0930000000000000	0.0390000000000000	-0.142000000000000	-0.215000000000000	-0.0730000000000000	0.0340000000000000	0.366000000000000	0.151000000000000	-0.161000000000000	-0.317000000000000	-0.205000000000000	-0.415000000000000	-0.225000000000000	-0.254000000000000	-0.430000000000000	-0.0290000000000000	-0.420000000000000	-0.493000000000000	-0.317000000000000	-0.273000000000000	-0.693000000000000	-0.562000000000000	-0.269000000000000	-0.122000000000000	-0.342000000000000	-0.532000000000000	-0.239000000000000	-0.176000000000000	-0.342000000000000	-0.483000000000000	-0.537000000000000	-0.601000000000000	-0.928000000000000	-0.957000000000000	-0.195000000000000	-0.0780000000000000	-0.518000000000000	-0.649000000000000	-0.605000000000000	-0.532000000000000	-1.06400000000000	-0.269000000000000	0.244000000000000	0.220000000000000	-0.410000000000000	-0.210000000000000	0.801000000000000	0.454000000000000	-0.605000000000000	-0.449000000000000	0.254000000000000	0.200000000000000	-0.229000000000000	-0.156000000000000	0.493000000000000	0.742000000000000	0.659000000000000	-0.322000000000000	0.0200000000000000	0.259000000000000	-0.0980000000000000	-0.0780000000000000	0.229000000000000	0.415000000000000	0.00500000000000000	-0.400000000000000	0.190000000000000	0.439000000000000	0.269000000000000	0.0100000000000000	0.308000000000000	0.181000000000000	-0.264000000000000	-0.420000000000000	-0.186000000000000	0.0630000000000000	-0.454000000000000	-0.186000000000000	0.132000000000000	0.361000000000000	0.371000000000000	0.532000000000000	-0.479000000000000	-0.469000000000000	-0.371000000000000	-0.244000000000000	0.249000000000000	0.371000000000000	-0.0930000000000000	0.0630000000000000	-0.200000000000000	-0.215000000000000	-0.303000000000000	-0.562000000000000	-0.742000000000000	-0.874000000000000	-0.488000000000000	-0.142000000000000	0.117000000000000	0.151000000000000	-0.474000000000000	-0.0930000000000000	-0.371000000000000	-1.15200000000000	-1.41600000000000	-1.11300000000000	-0.400000000000000	-0.117000000000000	-0.244000000000000	-0.356000000000000	0.171000000000000	0.0930000000000000	-0.0680000000000000	-0.586000000000000	-0.508000000000000	-0.0240000000000000	0.210000000000000	0.127000000000000	0.264000000000000	0.518000000000000	0.244000000000000	-0.0880000000000000	-0.0200000000000000	0.200000000000000	0.161000000000000	0.220000000000000	0.518000000000000	0.537000000000000	0.107000000000000	-0.0290000000000000	0.278000000000000	-0.142000000000000	-0.273000000000000	0.0150000000000000	0.127000000000000	0.210000000000000	0.0730000000000000	-0.400000000000000	-0.493000000000000	-0.0340000000000000	-0.225000000000000	-0.371000000000000	-0.273000000000000	-0.0390000000000000	-0.137000000000000	0.356000000000000	0.249000000000000	-0.405000000000000	-0.532000000000000	-0.283000000000000	0.200000000000000	-0.195000000000000	-0.444000000000000	-0.679000000000000	-0.156000000000000	0.112000000000000	-0.532000000000000	-0.483000000000000	0	0.0830000000000000	0.00500000000000000	-0.210000000000000	-0.0880000000000000	-0.0980000000000000	-0.0780000000000000	-0.298000000000000	-0.264000000000000	0.342000000000000	0.0150000000000000	-0.601000000000000	-0.249000000000000	-0.181000000000000	-0.239000000000000	-0.195000000000000	-0.0200000000000000	0.283000000000000	0	-0.244000000000000	0.0880000000000000	-0.0290000000000000	-0.327000000000000	0.327000000000000	-0.0390000000000000	-0.601000000000000	-0.249000000000000	-0.190000000000000	0.493000000000000	1.08400000000000	1.39200000000000	0.244000000000000	-0.293000000000000	-0.195000000000000	-0.625000000000000	-0.322000000000000	0.352000000000000	0.767000000000000	0.405000000000000	-0.0200000000000000	0.190000000000000	0.527000000000000	0.0730000000000000	0.137000000000000	0.435000000000000	0.396000000000000	0.0780000000000000	0.0200000000000000	0.156000000000000	0.122000000000000	-0.176000000000000	-0.269000000000000	0.142000000000000	0.156000000000000	-0.00500000000000000	-0.420000000000000	-0.430000000000000	0.190000000000000	0.0440000000000000	0.366000000000000	0	0.654000000000000	-0.669000000000000	-0.781000000000000	0.0340000000000000	0.234000000000000	-0.317000000000000	-0.664000000000000	0.0630000000000000	0.264000000000000	-0.205000000000000	-0.479000000000000	-0.356000000000000	-0.479000000000000	-0.537000000000000	-0.586000000000000	-0.522000000000000	-0.0390000000000000	-0.103000000000000	-0.464000000000000	-0.132000000000000	-0.0490000000000000	-0.708000000000000	-0.474000000000000	-0.142000000000000	-0.288000000000000	-0.347000000000000	-0.176000000000000	0.132000000000000	0.234000000000000	-0.132000000000000	-0.229000000000000	0.415000000000000	-0.0630000000000000	-0.278000000000000	-0.234000000000000	0.0590000000000000	-0.210000000000000	-0.605000000000000	0.0290000000000000	0.483000000000000	-0.0590000000000000	-0.405000000000000	0.151000000000000	0.317000000000000	0.376000000000000	0.127000000000000	-0.913000000000000	-0.879000000000000	-0.186000000000000	-0.0680000000000000	0.0340000000000000	0.356000000000000	0.0630000000000000	-0.430000000000000	0.0930000000000000	-0.0780000000000000	0.0730000000000000	0.117000000000000	0.210000000000000	0.332000000000000	0.562000000000000	0.122000000000000	0.132000000000000	0.386000000000000	0.420000000000000	0.137000000000000	0.273000000000000	0.352000000000000	0.601000000000000	0.425000000000000	0.181000000000000	0.479000000000000	0.308000000000000	0.181000000000000	-0.0680000000000000	-0.103000000000000	0.254000000000000	0.146000000000000	0.0150000000000000	0.234000000000000	-0.176000000000000	-0.137000000000000	0.322000000000000	0.547000000000000	-0.161000000000000	-0.933000000000000	-0.703000000000000	-0.0780000000000000	0.288000000000000	0.0730000000000000	-0.234000000000000	-0.190000000000000	0.137000000000000	0.166000000000000	-0.410000000000000	-0.918000000000000	-0.449000000000000	-0.190000000000000	-0.171000000000000	-0.0290000000000000	0.254000000000000	-0.0590000000000000	0.0590000000000000	-0.430000000000000	-0.620000000000000	-0.371000000000000	0.308000000000000	-0.347000000000000	-0.527000000000000	-0.376000000000000	-0.508000000000000	-0.00500000000000000	0.308000000000000	0.181000000000000	-0.410000000000000	-0.566000000000000	-0.195000000000000	-0.205000000000000	-0.278000000000000	-0.439000000000000	-0.547000000000000	-0.596000000000000	-0.254000000000000	-0.195000000000000	-0.0540000000000000	-0.0200000000000000	-0.0390000000000000	0.278000000000000	0.654000000000000	0.239000000000000	-0.376000000000000	-0.259000000000000	-0.430000000000000	-0.610000000000000	-0.615000000000000	-0.156000000000000	-0.259000000000000	0.0290000000000000	0.791000000000000	0.0440000000000000	-0.186000000000000	-0.449000000000000	-0.410000000000000	-0.0200000000000000	0.0540000000000000	-0.298000000000000	-0.581000000000000	-0.0980000000000000	0.381000000000000	0.0630000000000000	-0.469000000000000	0.0780000000000000	0.386000000000000	-0.0590000000000000	0.215000000000000	-0.117000000000000	-0.239000000000000	-0.498000000000000	-0.386000000000000	0.264000000000000	0.859000000000000	0.503000000000000	-0.0980000000000000	0.122000000000000	0.293000000000000	-0.464000000000000	-0.508000000000000	-0.234000000000000	0.0240000000000000	-0.327000000000000	-0.112000000000000	0.620000000000000	0.127000000000000	-0.596000000000000	-0.498000000000000	-0.195000000000000	0.0590000000000000	-0.176000000000000	-0.342000000000000	-0.112000000000000	0.225000000000000	0.234000000000000	0.234000000000000	-0.0830000000000000	0.0290000000000000	0.0150000000000000	-0.117000000000000	0.444000000000000	0.840000000000000	0.566000000000000	-0.239000000000000	-0.142000000000000	0.0440000000000000	0.117000000000000	-0.0240000000000000	0.791000000000000	0.479000000000000	-0.186000000000000	-0.366000000000000	-0.493000000000000	-0.322000000000000	-0.625000000000000	-0.928000000000000	-0.566000000000000	-0.0780000000000000	-0.0980000000000000	-0.0390000000000000	0.396000000000000	-0.376000000000000	-0.957000000000000	-0.742000000000000	-0.430000000000000	-0.659000000000000	-0.713000000000000	-0.522000000000000	0.142000000000000	0.557000000000000	0.615000000000000	0.361000000000000	-0.479000000000000	-0.127000000000000	-0.181000000000000	-0.361000000000000	0.107000000000000	1.11300000000000	0.444000000000000	0.132000000000000	0.112000000000000	0.161000000000000	0.176000000000000	-0.127000000000000	0.220000000000000	0.0930000000000000	-0.117000000000000	-0.605000000000000	-0.688000000000000	-0.210000000000000	-0.103000000000000	-0.273000000000000	-0.225000000000000	0.0290000000000000	-0.0200000000000000	0.0540000000000000	0.156000000000000	0	-0.425000000000000	-0.327000000000000	-0.356000000000000	0.137000000000000	-0.0880000000000000	-0.239000000000000	0.342000000000000	0.122000000000000	-0.488000000000000	-0.684000000000000	-0.479000000000000	-0.234000000000000	-0.210000000000000	-0.527000000000000	0.161000000000000	0.972000000000000	-0.244000000000000	-0.522000000000000	-0.488000000000000	-0.0490000000000000	0.210000000000000	-0.195000000000000	-0.0240000000000000	0.0540000000000000	-0.244000000000000	-0.479000000000000	0.454000000000000	1.45000000000000	0.415000000000000	-0.571000000000000	-0.645000000000000	0.0980000000000000	0.493000000000000	0.0390000000000000	-0.347000000000000	-0.200000000000000	-0.356000000000000	-0.630000000000000	-0.293000000000000	-0.332000000000000	0.0830000000000000	0.547000000000000	0.322000000000000	0.430000000000000	-0.352000000000000	-1.16700000000000	-0.630000000000000	-0.181000000000000	-0.674000000000000	-0.942000000000000	-0.454000000000000	0.186000000000000	0.181000000000000	0.493000000000000	0.908000000000000	0.444000000000000	-0.444000000000000	-0.190000000000000	-0.259000000000000	0.117000000000000	0.190000000000000	0.347000000000000	0.488000000000000	0.547000000000000	-0.127000000000000	-0.142000000000000	0.220000000000000	0.342000000000000	-0.103000000000000	-0.503000000000000	-0.229000000000000	0.0590000000000000	0.430000000000000	0.498000000000000	0.156000000000000	-0.122000000000000	-0.0680000000000000	-0.0490000000000000	-0.625000000000000	-0.0880000000000000	-0.435000000000000	-0.376000000000000	-0.713000000000000	0.430000000000000	0.454000000000000	-0.176000000000000	0.615000000000000	-0.195000000000000	-0.791000000000000	-1.28900000000000	-0.308000000000000	-0.200000000000000	-0.400000000000000	-0.527000000000000	-0.444000000000000	-0.0390000000000000	-0.122000000000000	0.122000000000000	0.444000000000000	0.317000000000000	-0.254000000000000	-0.317000000000000	-0.00500000000000000	0.308000000000000	0.0340000000000000	-0.142000000000000	0.435000000000000	0.586000000000000	0.278000000000000	0.0540000000000000	0.234000000000000	1.24000000000000	0.430000000000000	-0.0780000000000000	0.342000000000000	0.679000000000000	0.195000000000000	-0.342000000000000	-0.0100000000000000	0.249000000000000	-0.137000000000000	-0.156000000000000	0.0930000000000000	0.347000000000000	0.293000000000000	-0.264000000000000	-0.210000000000000	-0.308000000000000	-0.278000000000000	-0.225000000000000	-0.308000000000000	0	0.0390000000000000	-0.264000000000000	0.571000000000000	0.830000000000000	-0.396000000000000	-0.859000000000000	-0.474000000000000	-0.171000000000000	0.122000000000000	0.239000000000000	0.195000000000000	0.259000000000000	0.132000000000000	-0.0100000000000000	0.503000000000000	0.508000000000000	-0.425000000000000	-0.786000000000000	-0.0590000000000000	-0.312000000000000	-0.576000000000000	-0.557000000000000	-0.391000000000000	0.308000000000000	0.215000000000000	-0.474000000000000	0.0440000000000000	1.04500000000000	0.137000000000000	-0.679000000000000	-0.708000000000000	-0.474000000000000	-0.0680000000000000	0.0490000000000000	0.0880000000000000	-0.00500000000000000	-0.195000000000000	-0.366000000000000	-0.229000000000000	-0.117000000000000	-0.161000000000000	-0.137000000000000	0.122000000000000	0.952000000000000	0.156000000000000	-0.879000000000000	-0.815000000000000	-0.488000000000000	-0.0240000000000000	0.269000000000000	0.0540000000000000	0.166000000000000	0.146000000000000	-0.0440000000000000	0.464000000000000	0.498000000000000	-0.0100000000000000	-0.410000000000000	-0.225000000000000	-0.122000000000000	-0.361000000000000	-0.269000000000000	0.225000000000000	0.547000000000000	0.542000000000000	0.0150000000000000	-0.469000000000000	-0.0150000000000000	0.107000000000000	-0.161000000000000	0.483000000000000	1.12300000000000	-0.605000000000000	-0.483000000000000	0.483000000000000	0.791000000000000	1.08400000000000	0.430000000000000	-0.376000000000000	0.225000000000000	0.591000000000000	0.674000000000000	0.142000000000000	-0.156000000000000	-0.234000000000000	0.0490000000000000	0.371000000000000	0.444000000000000	0.308000000000000	-0.0930000000000000	-0.146000000000000	0.0340000000000000	-0.249000000000000	-0.825000000000000	-0.483000000000000	-0.171000000000000	-0.400000000000000	-0.757000000000000	-0.586000000000000	-0.225000000000000	-0.0680000000000000	-0.376000000000000	-0.430000000000000	-0.0540000000000000	-0.278000000000000	-0.454000000000000	-0.327000000000000	-0.620000000000000	-0.552000000000000	-0.322000000000000	-0.244000000000000	-0.664000000000000	-1.04500000000000	-1.38700000000000	-0.0490000000000000	0.796000000000000	-0.879000000000000	-1.99200000000000	-0.962000000000000	0.679000000000000	0.718000000000000	-0.244000000000000	-0.889000000000000	-0.620000000000000	-0.601000000000000	-0.220000000000000	0.532000000000000	0.688000000000000	0.488000000000000	0.576000000000000	0.508000000000000	0.532000000000000	0.503000000000000	0.259000000000000	0.493000000000000	0.571000000000000	0.269000000000000	0.356000000000000	0.781000000000000	0.815000000000000	0.635000000000000	0.103000000000000	0.0340000000000000	0.464000000000000	0.205000000000000	-0.146000000000000	-0.0390000000000000	0.220000000000000	0.0490000000000000	-0.166000000000000	0.225000000000000	0.762000000000000	0.210000000000000	-0.0780000000000000	0.386000000000000	0.654000000000000	0.352000000000000	-0.0290000000000000	-0.0540000000000000	0.386000000000000	0.879000000000000	0.269000000000000	0.239000000000000	0.566000000000000	-0.542000000000000	-0.771000000000000	0.0340000000000000	0.850000000000000	0.591000000000000	0.244000000000000	0.0340000000000000	0.0340000000000000	-0.146000000000000	-0.752000000000000	-0.132000000000000	-0.347000000000000	-0.762000000000000	-0.791000000000000	-0.547000000000000	-0.249000000000000	-0.176000000000000	-0.459000000000000	-0.327000000000000	0.0590000000000000	-0.469000000000000	-0.649000000000000	-0.186000000000000	-0.0200000000000000	-0.137000000000000	-0.312000000000000	-0.762000000000000	-0.239000000000000	0.0440000000000000	-0.0630000000000000	-0.0680000000000000	-0.952000000000000	-0.415000000000000	-0.386000000000000	0.303000000000000	0.562000000000000	0.0630000000000000	-0.474000000000000	-0.557000000000000	0.127000000000000	-0.0730000000000000	-0.376000000000000	-0.415000000000000	-0.503000000000000	-0.557000000000000	-0.566000000000000	-0.391000000000000	0.132000000000000	0.0980000000000000	-0.0390000000000000	1.00100000000000	2.31900000000000	0.796000000000000	-0.703000000000000	-0.635000000000000	-0.0440000000000000	0.913000000000000	0.864000000000000	0.234000000000000	0.205000000000000	-0.0240000000000000	-0.259000000000000	0.933000000000000	1.69400000000000	1.15200000000000	0.483000000000000	0.0680000000000000	0.190000000000000	0.0340000000000000	-0.435000000000000	-0.327000000000000	-0.103000000000000	-0.391000000000000	-0.605000000000000	-0.488000000000000	-0.244000000000000	-0.0390000000000000	-0.420000000000000	-0.410000000000000	-0.0200000000000000	-0.210000000000000	-0.415000000000000	-0.0830000000000000	0.435000000000000	0.347000000000000	-0.522000000000000	-1.24000000000000	-0.181000000000000	-0.625000000000000	-1.18700000000000	-0.723000000000000	-0.371000000000000	-0.400000000000000	-0.132000000000000	1.07900000000000	1.30400000000000	0.405000000000000	0.156000000000000	-0.679000000000000	-0.859000000000000	-0.723000000000000	-0.239000000000000	0.459000000000000	0.640000000000000	0.737000000000000	0.684000000000000	0.679000000000000	0.796000000000000	0.610000000000000	0.0680000000000000	0.239000000000000	0.547000000000000	0.166000000000000	-0.317000000000000	-0.195000000000000	0.103000000000000	0.210000000000000	-0.181000000000000	-0.498000000000000	0.0150000000000000	0.464000000000000	-0.864000000000000	-0.552000000000000	0.0830000000000000	0.0490000000000000	-0.0880000000000000	-0.151000000000000	-0.137000000000000	-0.254000000000000	-0.308000000000000	0.0490000000000000	0.527000000000000	0.127000000000000	-0.205000000000000	0.640000000000000	1.14700000000000	0.566000000000000	-0.601000000000000	-0.586000000000000	0.327000000000000	-0.107000000000000	0.229000000000000	0.654000000000000	0.410000000000000	-0.0590000000000000	0.205000000000000	0.835000000000000	0.552000000000000	-0.0630000000000000	-0.527000000000000	-0.767000000000000	-0.205000000000000	-0.171000000000000	-0.645000000000000	-0.967000000000000	-0.146000000000000	0.767000000000000	-0.0440000000000000	-0.537000000000000	-0.264000000000000	-0.298000000000000	-0.449000000000000	-0.312000000000000	0.0440000000000000	-0.0340000000000000	-0.312000000000000	-0.0200000000000000	0.0200000000000000	-0.176000000000000	-0.469000000000000	-0.181000000000000	0.312000000000000	-0.0730000000000000	-0.557000000000000	-0.220000000000000	0.220000000000000	0.942000000000000	0.151000000000000	-0.640000000000000	-0.181000000000000	-0.0150000000000000	0.0200000000000000	0.415000000000000	0.688000000000000	0.947000000000000	0.674000000000000	-0.0200000000000000	0.186000000000000	0.156000000000000	0.117000000000000	0.371000000000000	0.591000000000000	0.796000000000000	0.449000000000000	-0.0340000000000000	0.210000000000000	-0.0780000000000000	-0.0440000000000000	0.195000000000000	0.420000000000000	-0.0150000000000000	-0.347000000000000	-0.137000000000000	0.200000000000000	-0.0630000000000000	-0.103000000000000	-0.107000000000000	0.127000000000000	0.0590000000000000	-0.283000000000000	-0.166000000000000	0.146000000000000	-0.0590000000000000	-0.244000000000000	-0.317000000000000	-0.156000000000000	0.00500000000000000	-0.444000000000000	-0.425000000000000	0.122000000000000	0.103000000000000	-0.0540000000000000	0.830000000000000	0.195000000000000	-0.869000000000000	-0.361000000000000	-0.0780000000000000	-0.0540000000000000	-0.210000000000000	-0.0590000000000000	-0.317000000000000	-0.830000000000000	-0.371000000000000	-0.449000000000000	-0.0590000000000000	-0.132000000000000	-0.488000000000000	-1.02500000000000	-0.269000000000000	0.469000000000000	-0.361000000000000	-0.342000000000000	-0.386000000000000	0.0980000000000000	-0.0240000000000000	-0.225000000000000	-0.293000000000000	0.645000000000000	0.830000000000000	0.181000000000000	-0.215000000000000	0.332000000000000	0.332000000000000	0.273000000000000	0.850000000000000	0.864000000000000	0.581000000000000	0.171000000000000	0.278000000000000	0.796000000000000	0.723000000000000	0.273000000000000	0.732000000000000	0.342000000000000	0.244000000000000	0.107000000000000	0.200000000000000	0.645000000000000	0.459000000000000	0.205000000000000	0.366000000000000	0.371000000000000	0.0780000000000000	-0.352000000000000	-0.288000000000000	-0.0830000000000000	0.249000000000000	-0.0980000000000000	-0.254000000000000	0.0200000000000000	-0.0780000000000000	-0.566000000000000	-0.449000000000000	0.0490000000000000	0.0150000000000000	0.0100000000000000	-0.0980000000000000	-0.195000000000000	0.0680000000000000	-0.249000000000000	-0.107000000000000	0.225000000000000	0.0150000000000000	-0.244000000000000	0.0680000000000000	0.288000000000000	0.0930000000000000	-0.195000000000000	-0.293000000000000	-0.176000000000000	-0.420000000000000	-0.679000000000000	-0.415000000000000	-0.0240000000000000	0.288000000000000	0.371000000000000	0.918000000000000	0.576000000000000	-0.718000000000000	-0.884000000000000	-0.112000000000000	0.0590000000000000	-0.425000000000000	-0.796000000000000	-0.312000000000000	0.161000000000000	0.605000000000000	0.937000000000000	0.254000000000000	-0.0150000000000000	-0.220000000000000	-0.532000000000000	-0.215000000000000	0.0730000000000000	0.366000000000000	0.234000000000000	-0.0390000000000000	0.742000000000000	0.708000000000000	-0.234000000000000	0.0780000000000000	0.542000000000000	0.205000000000000	-0.117000000000000	-0.0150000000000000	0.278000000000000	0.708000000000000	0.376000000000000	0.0730000000000000	0.493000000000000	0.391000000000000	0.288000000000000	0.937000000000000	1.10800000000000	0.474000000000000	0.332000000000000	0.967000000000000	1.17700000000000	0.439000000000000	-0.0200000000000000	-0.166000000000000	0.171000000000000	0.361000000000000	0.190000000000000	-0.229000000000000	-0.293000000000000	0.742000000000000	0.679000000000000	-0.0200000000000000	-0.303000000000000	-0.659000000000000	-0.972000000000000	-0.630000000000000	-0.190000000000000	-0.0630000000000000	-0.454000000000000	-0.444000000000000	0.156000000000000	-0.0980000000000000	-0.435000000000000	0.229000000000000	0.435000000000000	-0.684000000000000	-0.742000000000000	-0.151000000000000	0.303000000000000	0.610000000000000	-0.527000000000000	-0.532000000000000	0.430000000000000	-0.225000000000000	-0.942000000000000	-0.459000000000000	0.176000000000000	0.547000000000000	0.269000000000000	0.122000000000000	-0.00500000000000000	-0.430000000000000	-0.171000000000000	-0.259000000000000	-0.264000000000000	-0.615000000000000	-0.630000000000000	0.386000000000000	0.957000000000000	1.17700000000000	-0.151000000000000	-0.801000000000000	0.322000000000000	0.674000000000000	0.171000000000000	0.244000000000000	0.186000000000000	0.0440000000000000	-0.0830000000000000	-0.0390000000000000	0.435000000000000	0.459000000000000	-0.0150000000000000	0.00500000000000000	0.366000000000000	0.0930000000000000	-0.269000000000000	-0.171000000000000	-0.0240000000000000	0.215000000000000	-0.0200000000000000	-0.0780000000000000	0.225000000000000	0.151000000000000	0.00500000000000000	-0.112000000000000	0.127000000000000	0.391000000000000	0.142000000000000	-0.00500000000000000	0.156000000000000	0.522000000000000	0.278000000000000	0.0930000000000000	0.645000000000000	0.347000000000000	-0.273000000000000	-0.0290000000000000	0.425000000000000	0.391000000000000	0.127000000000000	0.283000000000000	-0.454000000000000	-0.610000000000000	-0.625000000000000	-0.0730000000000000	0.146000000000000	-0.0340000000000000	-0.273000000000000	-0.259000000000000	0.283000000000000	0.479000000000000	-0.0980000000000000	-0.942000000000000	-0.552000000000000	-0.352000000000000	-0.615000000000000	-0.645000000000000	-0.293000000000000	0.190000000000000	0.0200000000000000	0.0880000000000000	0.962000000000000	-0.327000000000000	-0.532000000000000	0.610000000000000	0.830000000000000	0.684000000000000	0.566000000000000	0.391000000000000	0.371000000000000	0.420000000000000	-0.117000000000000	-0.0980000000000000	0.635000000000000	0.439000000000000	-0.117000000000000	0.0100000000000000	0.288000000000000	0.669000000000000	0.254000000000000	0.0780000000000000	-0.132000000000000	-0.615000000000000	-0.767000000000000	-1.03500000000000	-0.439000000000000	-0.215000000000000	-0.298000000000000	-0.488000000000000	0.107000000000000	0.879000000000000	-0.0290000000000000	-0.757000000000000	-0.933000000000000	-0.723000000000000	-0.576000000000000	-0.381000000000000	-0.0980000000000000	0.322000000000000	-0.137000000000000	-0.347000000000000	-0.220000000000000	-0.186000000000000	0.259000000000000	0.864000000000000	0.708000000000000	0.137000000000000	-0.171000000000000	-0.664000000000000	0.107000000000000	-0.0100000000000000	-0.625000000000000	-0.630000000000000	0.386000000000000	0.605000000000000	0.122000000000000	-0.273000000000000	-0.430000000000000	-0.112000000000000	0.190000000000000	0.142000000000000	0.269000000000000	0.586000000000000	-0.649000000000000	-0.952000000000000	-0.186000000000000	0.225000000000000	-0.127000000000000	-0.195000000000000	0.225000000000000	0.278000000000000	0.361000000000000	0.225000000000000	0.254000000000000	0.0880000000000000	0.0590000000000000	0.103000000000000	0.693000000000000	0.947000000000000	0.381000000000000	-0.0200000000000000	0.371000000000000	0.840000000000000	-0.0490000000000000	0.0980000000000000	0.640000000000000	0.483000000000000	0.195000000000000	0.156000000000000	0.542000000000000	0.635000000000000	0.0880000000000000	-0.0150000000000000	0.156000000000000	-0.107000000000000	-0.444000000000000	-0.469000000000000	-0.312000000000000	0.0290000000000000	-0.278000000000000	-0.293000000000000	0.0390000000000000	0.107000000000000	-0.562000000000000	-0.352000000000000	0.0440000000000000	-0.0390000000000000	-0.229000000000000	-0.215000000000000	-0.0980000000000000	-0.278000000000000	-1.00100000000000	-1.06000000000000	-0.776000000000000	-0.674000000000000	-0.205000000000000	-1.16200000000000	-0.972000000000000	0.366000000000000	0.742000000000000	0.215000000000000	-0.615000000000000	-1.06000000000000	-1.20600000000000	0.112000000000000	1.40100000000000	0.708000000000000	-0.503000000000000	-0.352000000000000	0.806000000000000	1.06900000000000	0.205000000000000	0.591000000000000	0.962000000000000	0.693000000000000	0.498000000000000	0.0200000000000000	-0.0290000000000000	0.742000000000000	0.776000000000000	0.347000000000000	0.527000000000000	0.972000000000000	0.112000000000000	-0.195000000000000	-0.195000000000000	-0.420000000000000	-0.508000000000000	-0.605000000000000	-0.146000000000000	0.601000000000000	0.693000000000000	0.449000000000000	0.391000000000000	0.112000000000000	-0.151000000000000	-0.576000000000000	-0.732000000000000	-0.283000000000000	-0.352000000000000	-0.366000000000000	0.122000000000000	0.342000000000000	0.0440000000000000	0.195000000000000	0.713000000000000	-0.278000000000000	-0.215000000000000	-0.605000000000000	-0.312000000000000	-0.0440000000000000	-0.200000000000000	-0.337000000000000	-0.220000000000000	-0.146000000000000	-0.156000000000000	0.142000000000000	-0.229000000000000	-0.0390000000000000	-0.479000000000000	-0.342000000000000	-0.278000000000000	-0.220000000000000	-0.630000000000000	-0.264000000000000	0.0830000000000000	0.161000000000000	0.117000000000000	-0.542000000000000	-0.449000000000000	-0.249000000000000	-0.571000000000000	-0.347000000000000	0.137000000000000	0	-0.0680000000000000	0.322000000000000	0.903000000000000	0.786000000000000	-0.0290000000000000	-0.0930000000000000	0.215000000000000	0.312000000000000	-0.205000000000000	-0.142000000000000	0.151000000000000	0.0930000000000000	0	0.200000000000000	0.444000000000000	0.269000000000000	0.0540000000000000	0.762000000000000	0.688000000000000	-0.361000000000000	-0.767000000000000	-1.05500000000000	-0.610000000000000	0.0340000000000000	-0.117000000000000	-0.137000000000000	0.0880000000000000	0.225000000000000	-0.557000000000000	-0.103000000000000	0.137000000000000	0.625000000000000	-0.107000000000000	-0.0340000000000000	0.659000000000000	0.776000000000000	0.288000000000000	-0.00500000000000000	0.254000000000000	0.146000000000000	-0.220000000000000	-0.371000000000000	0.0290000000000000	0.830000000000000	0.459000000000000	0.107000000000000	0.264000000000000	0.615000000000000	-0.0780000000000000	-0.410000000000000	-0.00500000000000000	0.254000000000000	-0.142000000000000	-0.527000000000000	-0.0340000000000000	0.0150000000000000	0.0440000000000000	0.293000000000000	0.288000000000000	-0.0390000000000000	-0.454000000000000	-0.435000000000000	-0.146000000000000	0.464000000000000	0.454000000000000	-0.464000000000000	-0.474000000000000	-0.669000000000000	-0.757000000000000	-0.327000000000000	0.0630000000000000	0.0490000000000000	-0.0980000000000000	-0.171000000000000	0.0340000000000000	0.483000000000000	0.0730000000000000	-0.625000000000000	-0.396000000000000	-0.303000000000000	-0.366000000000000	-0.596000000000000	0.0780000000000000	0.718000000000000	0.127000000000000	0.195000000000000	0.845000000000000	0.737000000000000	-0.288000000000000	-0.132000000000000	0.771000000000000	0.786000000000000	0.405000000000000	0.107000000000000	0.400000000000000	0.513000000000000	0.254000000000000	0.205000000000000	0.547000000000000	0.171000000000000	-0.200000000000000	-0.269000000000000	-0.0980000000000000	0.439000000000000	0.347000000000000	-0.322000000000000	0.156000000000000	0.195000000000000	-0.757000000000000	-0.586000000000000	0.122000000000000	0.405000000000000	-0.391000000000000	-0.444000000000000	0	0.327000000000000	0.444000000000000	-0.420000000000000	-0.381000000000000	-0.225000000000000	-0.493000000000000	-0.376000000000000	-0.00500000000000000	0.225000000000000	0.0440000000000000	0	0.112000000000000	0.181000000000000	-0.117000000000000	-0.190000000000000	-0.0390000000000000	0.0340000000000000	-0.0540000000000000	0.0290000000000000	0.474000000000000	0.815000000000000	0.142000000000000	-0.342000000000000	0.332000000000000	0.249000000000000	-0.215000000000000	-0.425000000000000	0.371000000000000	0.181000000000000	-0.264000000000000	-0.195000000000000	0.161000000000000	0.0730000000000000	-0.337000000000000	-0.122000000000000	0.283000000000000	0.542000000000000	0.605000000000000	0.371000000000000	-0.420000000000000	-0.322000000000000	-0.278000000000000	-0.0540000000000000	0.381000000000000	-0.0490000000000000	-0.601000000000000	-0.308000000000000	-0.0390000000000000	0.142000000000000	0.122000000000000	-0.0200000000000000	-0.0440000000000000	1.20600000000000	1.28900000000000	0.430000000000000	-0.503000000000000	-0.596000000000000	0.0630000000000000	0.0150000000000000	0.293000000000000	0.352000000000000	0.234000000000000	0.527000000000000	0.317000000000000	0.283000000000000	0.107000000000000	0.0340000000000000	0.239000000000000	0.508000000000000	0.220000000000000	-0.0490000000000000	-0.210000000000000	-0.142000000000000	-0.146000000000000	0.117000000000000	-0.127000000000000	-0.703000000000000	-0.718000000000000	-0.400000000000000	-0.0780000000000000	-0.0880000000000000	-0.474000000000000	-0.439000000000000	0.127000000000000	0.684000000000000	0.0880000000000000	-1.04000000000000	-0.820000000000000	-0.112000000000000	0.449000000000000	0.278000000000000	-0.215000000000000	-0.0680000000000000	-0.337000000000000	-0.249000000000000	0.132000000000000	0.371000000000000	0.117000000000000	0.273000000000000	1.04000000000000	1.09900000000000	-0.244000000000000	-0.771000000000000	0.117000000000000	0.210000000000000	-0.0730000000000000	-0.244000000000000	0.171000000000000	0.732000000000000	0.464000000000000	0.107000000000000	0.166000000000000	0.190000000000000	-0.0150000000000000	0.137000000000000	0.347000000000000	0.332000000000000	-0.244000000000000	-0.518000000000000	0.586000000000000	0.801000000000000	0.234000000000000	0.151000000000000	0.615000000000000	0.371000000000000	-0.205000000000000	-0.576000000000000	-0.0390000000000000	0.752000000000000	0.703000000000000	0.264000000000000	-0.215000000000000	-0.176000000000000	-0.137000000000000	0.107000000000000	0.425000000000000	0.483000000000000	0.0680000000000000	-0.117000000000000	0.0440000000000000	-0.00500000000000000	-0.146000000000000	-0.332000000000000	0.0390000000000000	-0.0880000000000000	-0.430000000000000	-0.859000000000000	-0.498000000000000	0.0150000000000000	0.0880000000000000	-0.0390000000000000	-0.107000000000000	0.303000000000000	-0.298000000000000	-0.444000000000000	-0.0100000000000000	0.200000000000000	-0.308000000000000	-0.513000000000000	-0.137000000000000	-0.464000000000000	-0.874000000000000	-0.527000000000000	0.132000000000000	-0.117000000000000	-0.601000000000000	-0.698000000000000	-0.415000000000000	1.62100000000000	0.737000000000000	-0.605000000000000	-0.640000000000000	-0.386000000000000	-0.200000000000000	0.151000000000000	0.449000000000000	0.283000000000000	0.371000000000000	0.0730000000000000	0.0200000000000000	0.596000000000000	0.654000000000000	0.103000000000000	-0.200000000000000	-0.308000000000000	-0.469000000000000	0.0930000000000000	0.601000000000000	-0.273000000000000	-0.605000000000000	-0.439000000000000	0.0100000000000000	-0.0440000000000000	-0.684000000000000	-0.591000000000000	-0.0540000000000000	0.171000000000000	-0.0340000000000000	0.0390000000000000	0.0830000000000000	0.151000000000000	0.0490000000000000	-0.332000000000000	0.298000000000000	0.381000000000000	0.444000000000000	0.332000000000000	-0.171000000000000	-0.127000000000000	0.161000000000000	0.200000000000000	0.293000000000000	0.459000000000000	-0.0680000000000000	-0.117000000000000	0.151000000000000	0.264000000000000	-0.0440000000000000	-0.171000000000000	0.0490000000000000	0.391000000000000	0.454000000000000	-0.0390000000000000	-0.0100000000000000	-0.405000000000000	-0.488000000000000	-0.527000000000000	-0.693000000000000	-0.112000000000000	-0.0680000000000000	-0.0240000000000000	0.229000000000000	0.625000000000000	0.352000000000000	-0.303000000000000	-0.376000000000000	0.0980000000000000	-0.693000000000000	-0.513000000000000	0.542000000000000	0.820000000000000	0.381000000000000	0.234000000000000	0.610000000000000	-0.0390000000000000	-0.757000000000000	-0.352000000000000	0.474000000000000	0.972000000000000	0.669000000000000	0.332000000000000	0.518000000000000	0.420000000000000	-0.176000000000000	-0.405000000000000	-0.547000000000000	-0.205000000000000	-0.259000000000000	-0.356000000000000	-0.303000000000000	-0.103000000000000	-1.23500000000000	-0.708000000000000	0.669000000000000	-0.825000000000000	-1.22600000000000	-0.835000000000000	-0.640000000000000	-0.0780000000000000	0.0540000000000000	-0.684000000000000	-0.596000000000000	-0.322000000000000	-0.444000000000000	0.0540000000000000	-0.454000000000000	0.645000000000000	-0.0730000000000000	-0.176000000000000	0.537000000000000	0.806000000000000	0.542000000000000	0.0340000000000000	0.391000000000000	0.234000000000000	0.0440000000000000	0.0830000000000000	0.459000000000000	0.698000000000000	0.630000000000000	0.137000000000000	0.405000000000000	0.571000000000000	0	-0.684000000000000	-0.630000000000000	0.146000000000000	0.298000000000000	0.132000000000000	0.156000000000000	0.127000000000000	-0.479000000000000	-0.229000000000000	0.859000000000000	0.103000000000000	-1.13800000000000	-1.21100000000000	-0.137000000000000	0.439000000000000	-0.00500000000000000	-0.391000000000000	-0.205000000000000	0.0390000000000000	-0.176000000000000	-0.146000000000000	0.0830000000000000	0.254000000000000	0.220000000000000	0.308000000000000	0.571000000000000	0.474000000000000	0.122000000000000	-0.171000000000000	0.415000000000000	-0.0680000000000000	-0.645000000000000	-0.508000000000000	-0.0880000000000000	0.298000000000000	0.298000000000000	0.107000000000000	-0.0680000000000000	0.317000000000000	-0.356000000000000	-0.591000000000000	-0.293000000000000	0.0630000000000000	-0.205000000000000	-0.425000000000000	-0.356000000000000	-0.298000000000000	-0.239000000000000	-0.376000000000000	-0.112000000000000	-0.308000000000000	-0.684000000000000	-0.703000000000000	-0.254000000000000	0.0490000000000000	0.405000000000000	0.137000000000000	-0.337000000000000	-0.278000000000000	-0.454000000000000	-0.366000000000000	-0.0240000000000000	0.352000000000000	-0.0880000000000000	-0.0100000000000000	0.220000000000000	-0.190000000000000	-0.469000000000000	-0.444000000000000	0.225000000000000	1.09400000000000	0.933000000000000	-0.801000000000000	-1.52300000000000	-0.767000000000000	0.518000000000000	-0.117000000000000	-0.586000000000000	0.00500000000000000	-0.0490000000000000	0.0240000000000000	0.659000000000000	1.00100000000000	0.112000000000000	-0.249000000000000	-0.249000000000000	0.264000000000000	0.303000000000000	0.0340000000000000	1.00600000000000	1.24500000000000	-0.156000000000000	0.0150000000000000	1.24500000000000	1.20100000000000	0.405000000000000	0.264000000000000	0.312000000000000	0.879000000000000	-0.425000000000000	-0.171000000000000	0.381000000000000	0.601000000000000	0.269000000000000	0.0930000000000000	-0.00500000000000000	0.195000000000000	0.0680000000000000	-0.366000000000000	-0.161000000000000	0.137000000000000	-0.420000000000000	-0.752000000000000	-0.337000000000000	0.00500000000000000	-0.0630000000000000	-0.200000000000000	-0.00500000000000000	0.103000000000000	-0.146000000000000	-0.0680000000000000	0.410000000000000	-0.259000000000000	-0.415000000000000	0.181000000000000	0.288000000000000	0.146000000000000	0.200000000000000	-0.273000000000000	-0.347000000000000	0.0540000000000000	0.107000000000000	-0.220000000000000	-0.186000000000000	0.0490000000000000	-0.0540000000000000	-0.449000000000000	-0.210000000000000	0.107000000000000	-0.352000000000000	-0.352000000000000	-0.410000000000000	-0.410000000000000	-0.557000000000000	-0.518000000000000	-0.156000000000000	-0.0540000000000000	0.0240000000000000	-0.571000000000000	-0.0930000000000000	0.767000000000000	-0.137000000000000	-1.00100000000000	-0.713000000000000	-0.151000000000000	0.0630000000000000	-0.234000000000000	-0.225000000000000	-0.142000000000000	-0.479000000000000	-0.273000000000000	0.381000000000000	0.737000000000000	0.493000000000000	0.386000000000000	0.317000000000000	0.430000000000000	-0.0340000000000000	-0.259000000000000	0.269000000000000	0.532000000000000	0.308000000000000	-0.640000000000000	-0.557000000000000	1.18200000000000	1.32300000000000	-0.244000000000000	-0.127000000000000	0.0830000000000000	0.107000000000000	0.342000000000000	0.659000000000000	0.977000000000000	-0.811000000000000	-0.669000000000000	0.376000000000000	0.400000000000000	0.483000000000000	0.293000000000000	0.356000000000000	-0.518000000000000	-0.381000000000000	-0.0980000000000000	-0.122000000000000	0.142000000000000	0.234000000000000	-0.0240000000000000	0.0540000000000000	0.317000000000000	0.615000000000000	-0.937000000000000	-0.327000000000000	0.220000000000000	0.0200000000000000	-0.151000000000000	-0.0490000000000000	0.0830000000000000	-0.0240000000000000	-0.396000000000000	-0.0100000000000000	0.0590000000000000	-0.337000000000000	-0.410000000000000	0.322000000000000	-0.0880000000000000	-0.122000000000000	-0.347000000000000	-0.225000000000000	0	-0.693000000000000	-1.01100000000000	-0.947000000000000	-0.654000000000000	-0.767000000000000	-0.630000000000000	-0.00500000000000000	0.0980000000000000	-0.0440000000000000	-0.220000000000000	-0.00500000000000000	-0.264000000000000	-0.654000000000000	-0.874000000000000	-0.381000000000000	0.107000000000000	0.156000000000000	-0.0780000000000000	0.127000000000000	0.469000000000000	0.386000000000000	0.356000000000000	0.757000000000000	0.435000000000000	0.747000000000000	0.254000000000000	0.0290000000000000	0.308000000000000	0.215000000000000	-0.0100000000000000	0.439000000000000	0.791000000000000	0.615000000000000	0.435000000000000	0.415000000000000	0.518000000000000	0.0200000000000000	-0.952000000000000	-0.703000000000000	0.684000000000000	0.347000000000000	-0.322000000000000	-0.0290000000000000	0.435000000000000	1.28900000000000	1.27900000000000	-0.444000000000000	-0.576000000000000	0.0930000000000000	-0.234000000000000	-0.200000000000000	0.0540000000000000	-0.195000000000000	-0.317000000000000	-0.122000000000000	0.488000000000000	0.791000000000000	0.00500000000000000	-0.0630000000000000	0.278000000000000	0.0490000000000000	-0.142000000000000	-0.210000000000000	-0.186000000000000	-0.137000000000000	-0.171000000000000	-0.220000000000000	0.386000000000000	0.430000000000000	-1.05000000000000	-1.11300000000000	-0.376000000000000	-0.576000000000000	-1.52800000000000	-1.30900000000000	-0.0100000000000000	0.586000000000000	0.493000000000000	-0.0440000000000000	-0.444000000000000	-0.757000000000000	-0.474000000000000	-0.449000000000000	-0.0240000000000000	-0.933000000000000	-0.205000000000000	0.586000000000000	0.249000000000000	0.513000000000000	0.298000000000000	0.562000000000000	0.840000000000000	0.195000000000000	-0.239000000000000	0.0390000000000000	0.371000000000000	0.547000000000000	0.00500000000000000	0.0200000000000000	0.566000000000000	0.200000000000000	0.117000000000000	0.371000000000000	0.806000000000000	0.435000000000000	0.347000000000000	0.601000000000000	0.518000000000000	0.425000000000000	0.171000000000000	0.483000000000000	0.552000000000000	-0.298000000000000	-0.679000000000000	-0.156000000000000	0.337000000000000	0.503000000000000	-0.0880000000000000	-0.488000000000000	-0.0200000000000000	0.718000000000000	0.229000000000000	-0.562000000000000	-0.601000000000000	-0.869000000000000	-0.757000000000000	-0.439000000000000	0.0930000000000000	0.00500000000000000	-0.317000000000000	-0.151000000000000	-0.0780000000000000	-0.293000000000000	-0.576000000000000	-0.635000000000000	-0.127000000000000	0.200000000000000	-0.542000000000000	-0.923000000000000	-0.400000000000000	-0.298000000000000	-0.576000000000000	-0.317000000000000	-0.342000000000000	-0.566000000000000	-0.146000000000000	0.493000000000000	0.410000000000000	-0.444000000000000	-1.09400000000000	-0.439000000000000	0.234000000000000	0.356000000000000	-0.322000000000000	-0.410000000000000	-0.151000000000000	-0.103000000000000	-0.342000000000000	0.239000000000000	0.879000000000000	0.122000000000000	-0.376000000000000	0.0630000000000000	0.264000000000000	0.420000000000000	0.142000000000000	0.122000000000000	0.195000000000000	0.288000000000000	0.142000000000000	0.273000000000000	0.474000000000000	0.0340000000000000	-0.210000000000000	0.0780000000000000	0.444000000000000	1.01600000000000	1.01600000000000	0.317000000000000	1.00600000000000	1.10400000000000	0.122000000000000	0.513000000000000	0.859000000000000	0.630000000000000	0.439000000000000	0.322000000000000	-0.0290000000000000	0.0200000000000000	0.225000000000000	0.591000000000000	0.835000000000000	0.688000000000000	-0.0630000000000000	-0.312000000000000	-0.269000000000000	-0.444000000000000	-0.298000000000000	-0.220000000000000	0.103000000000000	-0.0440000000000000	-0.825000000000000	-0.645000000000000	-0.0340000000000000	-0.601000000000000	-0.654000000000000	0.0340000000000000	-0.425000000000000	-1.00100000000000	-1.31800000000000	-0.698000000000000	-0.0340000000000000	0.0340000000000000	-0.195000000000000	-0.620000000000000	-0.200000000000000	0.532000000000000	-0.571000000000000	-1.17200000000000	-0.767000000000000	-0.625000000000000	-0.737000000000000	-0.352000000000000	0.293000000000000	0.630000000000000	0.439000000000000	0.312000000000000	1.16700000000000	0.176000000000000	-0.522000000000000	-0.103000000000000	0.366000000000000	0.0390000000000000	-0.156000000000000	0.469000000000000	0.981000000000000	0.791000000000000	0.444000000000000	0.371000000000000	0.503000000000000	0.474000000000000	0.278000000000000	0.547000000000000	0.581000000000000	0.244000000000000	0.0930000000000000	0.317000000000000	0.459000000000000	-0.225000000000000	-0.186000000000000	0.137000000000000	0.371000000000000	-0.0930000000000000	-0.801000000000000	-0.776000000000000	0.0590000000000000	0.244000000000000	0.269000000000000	0.596000000000000	0.0440000000000000	-0.605000000000000	-0.747000000000000	-0.439000000000000	-0.181000000000000	-0.332000000000000	-0.0930000000000000	0.547000000000000	0.903000000000000	0.498000000000000	-0.215000000000000	0.0590000000000000	0.488000000000000	0.220000000000000	-0.347000000000000	-0.557000000000000	-0.366000000000000	-0.415000000000000	-0.562000000000000	-0.400000000000000	0.220000000000000	-0.649000000000000	-0.801000000000000	0.132000000000000	0.259000000000000	-0.474000000000000	-0.884000000000000	-0.635000000000000	0.127000000000000	0.0590000000000000	-0.483000000000000	-0.498000000000000	0.239000000000000	0.215000000000000	-0.156000000000000	-0.347000000000000	0.0590000000000000	0.757000000000000	-0.840000000000000	-0.293000000000000	0.444000000000000	0.278000000000000	-0.181000000000000	-0.190000000000000	0.0630000000000000	0.933000000000000	1.32300000000000	0.444000000000000	0.410000000000000	0.264000000000000	-0.117000000000000	0.234000000000000	0.693000000000000	-0.254000000000000	-0.679000000000000	-0.259000000000000	0.669000000000000	1.09400000000000	0.933000000000000	0.708000000000000	-0.142000000000000	-0.146000000000000	-0.264000000000000	0.0540000000000000	0.352000000000000	0.0780000000000000	-0.171000000000000	-0.469000000000000	-0.132000000000000	0.0590000000000000	-0.337000000000000	-0.0680000000000000	0.244000000000000	-0.356000000000000	-0.0150000000000000	0.469000000000000	0.356000000000000	0.0390000000000000	-0.293000000000000	-0.0780000000000000	-0.391000000000000	-0.371000000000000	-0.117000000000000	0	0.581000000000000	-0.0290000000000000	-0.605000000000000	-0.425000000000000	-0.0830000000000000	0.166000000000000	-0.220000000000000	0.171000000000000	0.449000000000000	-0.557000000000000	-1.37700000000000	-1.19600000000000	-0.762000000000000	-0.327000000000000	-0.532000000000000	-0.649000000000000	0.142000000000000	0.337000000000000	-0.137000000000000	-0.0590000000000000	-0.107000000000000	-0.420000000000000	-0.200000000000000	0	0.322000000000000	0.312000000000000	-0.0980000000000000	0.0490000000000000	0.679000000000000	0.469000000000000	-0.0780000000000000	0.181000000000000	0.703000000000000	1.02500000000000	0.391000000000000	-0.0730000000000000	0.317000000000000	0.356000000000000	0.137000000000000	0.640000000000000	0.581000000000000	-0.293000000000000	0.200000000000000	0.327000000000000	0.103000000000000	0.0490000000000000	-0.234000000000000	0.0680000000000000	0.415000000000000	-0.210000000000000	-0.552000000000000	-0.518000000000000	0.0490000000000000	0.825000000000000	0.210000000000000	-0.244000000000000	-0.0200000000000000	0.0630000000000000	0.464000000000000	0.986000000000000	0.615000000000000	-0.107000000000000	-0.522000000000000	-0.708000000000000	0.225000000000000	0.352000000000000	-0.200000000000000	0.0390000000000000	0.435000000000000	-0.0440000000000000	-0.195000000000000	0.693000000000000	0.571000000000000	-0.200000000000000	-0.937000000000000	-0.698000000000000	-0.0880000000000000	-0.0590000000000000	-0.391000000000000	-0.112000000000000	0.498000000000000	0.566000000000000	0.122000000000000	-0.381000000000000	0.0440000000000000	0	-0.430000000000000	0.210000000000000	0.566000000000000	0.205000000000000	0	-0.112000000000000	0.00500000000000000	0.396000000000000	0.200000000000000	0.767000000000000	0.552000000000000	0.0880000000000000	0.00500000000000000	0.488000000000000	0.356000000000000	0.396000000000000	0.840000000000000	0.254000000000000	0.747000000000000	-0.625000000000000	-0.303000000000000	0.645000000000000	0.728000000000000	0.137000000000000	0.0200000000000000	0.166000000000000	0.366000000000000	0.288000000000000	-0.464000000000000	-0.371000000000000	-0.0290000000000000	-0.107000000000000	-0.356000000000000	-0.190000000000000	-0.0540000000000000	-0.0980000000000000	-0.244000000000000	-0.107000000000000	-0.0680000000000000	-0.254000000000000	-0.508000000000000	-0.220000000000000	-0.342000000000000	-0.605000000000000	-0.620000000000000	0.0440000000000000	0.806000000000000	-0.0630000000000000	-1.04000000000000	-1.30900000000000	0.0290000000000000	0.581000000000000	-0.132000000000000	-0.254000000000000	-0.459000000000000	-0.732000000000000	-0.444000000000000	-0.239000000000000	0.269000000000000	0.298000000000000	-0.220000000000000	-0.117000000000000	0.728000000000000	-0.352000000000000	-0.796000000000000	-0.869000000000000	-0.767000000000000	-0.234000000000000	-0.225000000000000	0.122000000000000	0.459000000000000	0.454000000000000	0.278000000000000	0.0880000000000000	0.200000000000000	0.317000000000000	0.229000000000000	0.0340000000000000	0.483000000000000	0.615000000000000	0.190000000000000	-0.156000000000000	-0.0200000000000000	0.352000000000000	0.181000000000000	0.278000000000000	0.454000000000000	0.801000000000000	0.0590000000000000	-0.200000000000000	0.352000000000000	0.425000000000000	-0.127000000000000	0.0150000000000000	0.229000000000000	-0.0240000000000000	-0.146000000000000	0.352000000000000	0.308000000000000	-0.0830000000000000	-0.459000000000000	0.127000000000000	0.933000000000000	-0.0440000000000000	-0.181000000000000	0.337000000000000	0.327000000000000	0.415000000000000	-0.0680000000000000	-0.107000000000000	0.210000000000000	-0.117000000000000	-0.439000000000000	-0.176000000000000	-0.400000000000000	-0.444000000000000	-0.215000000000000	-0.0930000000000000	0.215000000000000	0.0340000000000000	-0.479000000000000	-0.596000000000000	0.210000000000000	0.288000000000000	-0.610000000000000	-1.06400000000000	-0.752000000000000	0.317000000000000	-0.264000000000000	-0.171000000000000	0.195000000000000	-0.0240000000000000	-0.273000000000000	-0.166000000000000	0.0150000000000000	0.249000000000000	0.205000000000000	0.0590000000000000	0.0100000000000000	-0.322000000000000	-0.0200000000000000	1.09900000000000	0.752000000000000	0.151000000000000	-1.78200000000000	-0.786000000000000	0.376000000000000	0.283000000000000	-0.347000000000000	-0.0490000000000000	0.0930000000000000	0.527000000000000	0.508000000000000	-0.381000000000000	-0.327000000000000	0.0930000000000000	0.0680000000000000	-0.0490000000000000	0.322000000000000	0.464000000000000	0.00500000000000000	-0.278000000000000	0.352000000000000	0.435000000000000	0.435000000000000	0.386000000000000	0.0540000000000000	0.298000000000000	-0.249000000000000	0.0590000000000000	0.396000000000000	0.239000000000000	0	0.142000000000000	0.405000000000000	0.220000000000000	-0.0590000000000000	-0.190000000000000	0.156000000000000	-0.225000000000000	-0.625000000000000	-0.713000000000000	-0.249000000000000	-0.430000000000000	-0.674000000000000	-0.576000000000000	-0.234000000000000	0.737000000000000	0.659000000000000	0.0830000000000000	-0.654000000000000	-0.630000000000000	-0.630000000000000	-0.225000000000000	0.303000000000000	0.547000000000000	0.400000000000000	0.342000000000000	0.562000000000000	0.176000000000000	-0.259000000000000	-0.195000000000000	0.190000000000000	-0.493000000000000	-0.503000000000000	-0.0630000000000000	0.293000000000000	0.562000000000000	-0.0680000000000000	-0.801000000000000	-0.264000000000000	-0.361000000000000	-0.703000000000000	0.151000000000000	0.371000000000000	-0.234000000000000	-0.610000000000000	-0.181000000000000	0.596000000000000	0.474000000000000	0.254000000000000	0.0290000000000000	0.391000000000000	0.444000000000000	-0.0930000000000000	-0.288000000000000	0.386000000000000	1.06400000000000	-0.0730000000000000	-0.493000000000000	0.415000000000000	0.576000000000000	-0.195000000000000	-0.195000000000000	0.566000000000000	0.728000000000000	-0.0590000000000000	-0.254000000000000	-0.176000000000000	0.0440000000000000	-0.249000000000000	-0.352000000000000	-0.112000000000000	-0.332000000000000	-0.303000000000000	-0.400000000000000	-0.200000000000000	0.151000000000000	0.317000000000000	0.229000000000000	-0.444000000000000	-0.386000000000000	-0.630000000000000	-0.508000000000000	0.0540000000000000	0.542000000000000	0.176000000000000	-0.425000000000000	-0.0290000000000000	0.171000000000000	-0.278000000000000	-0.493000000000000	0.171000000000000	0.0100000000000000	-0.293000000000000	-0.366000000000000	0.0290000000000000	0.635000000000000	0.347000000000000	0.0440000000000000	-0.107000000000000	0.0150000000000000	-0.513000000000000	-0.171000000000000	0.0390000000000000	-0.0680000000000000	-0.151000000000000	-0.244000000000000	0.840000000000000	0.762000000000000	-0.513000000000000	-0.0780000000000000	0.400000000000000	0.220000000000000	-0.322000000000000	-0.669000000000000	-0.166000000000000	0.356000000000000	0.0830000000000000	-0.166000000000000	-0.308000000000000	-0.244000000000000	0.0540000000000000	0.376000000000000	0.215000000000000	0.0540000000000000	0.283000000000000	0.332000000000000	0.654000000000000	0.547000000000000	0.190000000000000	0.151000000000000	0.430000000000000	0.0240000000000000	-0.576000000000000	-0.645000000000000	-0.571000000000000	0.132000000000000	0.0540000000000000	-0.0680000000000000	0.0980000000000000	-0.312000000000000	-0.630000000000000	-0.288000000000000	0.317000000000000	0.210000000000000	-0.776000000000000	-1.18200000000000	-0.483000000000000	0.342000000000000	-0.488000000000000	-1.02500000000000	0.269000000000000	0.356000000000000	0.181000000000000	0.244000000000000	0.937000000000000	1.01600000000000	-0.586000000000000	-0.254000000000000	0.215000000000000	0.376000000000000	0.151000000000000	-0.0590000000000000	-0.176000000000000	-0.146000000000000	-0.337000000000000	0.264000000000000	0.713000000000000	-0.181000000000000	-0.244000000000000	-0.581000000000000	-0.166000000000000	-0.220000000000000	-0.337000000000000	-0.371000000000000	-0.342000000000000	0.176000000000000	0.107000000000000	-0.0200000000000000	0.405000000000000	0.288000000000000	-0.625000000000000	-0.288000000000000	0.283000000000000	0.625000000000000	0.254000000000000	-0.0100000000000000	0.361000000000000	0.547000000000000	0.103000000000000	-0.439000000000000	-0.229000000000000	-0.0680000000000000	-0.137000000000000	-0.356000000000000	-0.542000000000000	0.420000000000000	-0.474000000000000	-0.234000000000000	0.0390000000000000	-0.156000000000000	-0.366000000000000	-0.288000000000000	0.293000000000000	0.596000000000000	-0.264000000000000	-0.420000000000000	0.298000000000000	0.166000000000000	-0.234000000000000	0.361000000000000	1.34300000000000	0.537000000000000	-0.410000000000000	-0.220000000000000	0.132000000000000	0.518000000000000	0.342000000000000	0.166000000000000	0.0830000000000000	0.205000000000000	-0.635000000000000	-0.581000000000000	0.0240000000000000	0.176000000000000	-0.229000000000000	-0.371000000000000	0.0440000000000000	0.327000000000000	-0.176000000000000	-0.781000000000000	-0.371000000000000	-0.376000000000000	-0.493000000000000	-0.493000000000000	-0.332000000000000	0.0880000000000000	-0.283000000000000	-0.454000000000000	-0.156000000000000	-0.137000000000000	-0.327000000000000	0.703000000000000	0.796000000000000	-0.425000000000000	-0.454000000000000	0.0240000000000000	-0.132000000000000	0.195000000000000	0.151000000000000	-0.0150000000000000	0.581000000000000	0.635000000000000	0.122000000000000	-0.181000000000000	0.591000000000000	1.19600000000000	0	-0.430000000000000	0.0100000000000000	-0.190000000000000	-0.762000000000000	-0.0930000000000000	0.820000000000000	0.659000000000000	0.513000000000000	0.181000000000000	0.469000000000000	0.332000000000000	0.371000000000000	-0.146000000000000	-0.293000000000000	-0.210000000000000	0.0630000000000000	-0.234000000000000	0.0390000000000000	0.527000000000000	0.239000000000000	0.225000000000000	0.479000000000000	0.679000000000000	0.327000000000000	0.317000000000000	0.605000000000000	0.215000000000000	-0.957000000000000	-0.557000000000000	0.0830000000000000	-0.0490000000000000	-0.415000000000000	-0.449000000000000	-0.0930000000000000	0.352000000000000	0.112000000000000	-0.439000000000000	-0.347000000000000	-0.229000000000000	-0.493000000000000	-0.498000000000000	-0.142000000000000	-0.00500000000000000	-0.620000000000000	-0.503000000000000	-0.449000000000000	-0.151000000000000	-0.234000000000000	-0.171000000000000	0.0980000000000000	-0.0390000000000000	-0.571000000000000	0.0780000000000000	-0.454000000000000	-0.713000000000000	-0.840000000000000	-0.894000000000000	-0.640000000000000	-0.0630000000000000	0.903000000000000	0.176000000000000	-0.747000000000000	-0.405000000000000	-0.229000000000000	0.249000000000000	0.806000000000000	1.28900000000000	0.864000000000000	0.112000000000000	-0.566000000000000	-0.249000000000000	0.581000000000000	0.249000000000000	0.801000000000000	0.942000000000000	0.591000000000000	0.278000000000000	0.464000000000000	0.742000000000000	0.391000000000000	0.254000000000000	0.308000000000000	0.361000000000000	-0.0390000000000000	-0.142000000000000	0.181000000000000	0.513000000000000	0.244000000000000	0.0340000000000000	0.117000000000000	0.317000000000000	0.103000000000000	-0.0830000000000000	0.0490000000000000	-0.425000000000000	-0.0440000000000000	0.273000000000000	0.444000000000000	0.659000000000000	-0.0150000000000000	-0.220000000000000	-0.293000000000000	-0.0780000000000000	0.0200000000000000	-0.156000000000000	0.220000000000000	0.234000000000000	-0.322000000000000	-0.400000000000000	-0.107000000000000	0.0150000000000000	0.205000000000000	0.0630000000000000	-0.454000000000000	0.0290000000000000	0.293000000000000	-0.547000000000000	-0.747000000000000	0.0390000000000000	0.200000000000000	0.479000000000000	-0.298000000000000	-0.396000000000000	-0.298000000000000	-0.107000000000000	0.200000000000000	0.381000000000000	-0.444000000000000	-0.234000000000000	0.0880000000000000	0.234000000000000	-0.337000000000000	-0.518000000000000	-0.0540000000000000	0.00500000000000000	-0.210000000000000	-0.391000000000000	-0.522000000000000	-0.259000000000000	-0.479000000000000	0.293000000000000	1.14300000000000	-0.0590000000000000	-0.898000000000000	-0.322000000000000	0.376000000000000	0.488000000000000	0.303000000000000	-0.0980000000000000	0.308000000000000	0.503000000000000	0.581000000000000	-0.254000000000000	0.352000000000000	0.459000000000000	-0.112000000000000	-0.225000000000000	0.112000000000000	0.400000000000000	0.0980000000000000	-0.166000000000000	-0.205000000000000	0.0150000000000000	-0.205000000000000	-0.181000000000000	-0.0680000000000000	0.0980000000000000	0.0340000000000000	0.0680000000000000	0.361000000000000	0.620000000000000	-0.234000000000000	-0.649000000000000	-0.508000000000000	-0.649000000000000	-0.703000000000000	-0.244000000000000	0.591000000000000	1.60200000000000	1.46500000000000	-0.796000000000000	-0.732000000000000	-0.190000000000000	-0.308000000000000	-0.195000000000000	0.132000000000000	0.298000000000000	0.0340000000000000	-0.0730000000000000	0.220000000000000	0.376000000000000	0.117000000000000	-0.142000000000000	0.0240000000000000	-0.0980000000000000	-0.879000000000000	-0.854000000000000	-0.176000000000000	0.0390000000000000	-0.161000000000000	-0.210000000000000	0.283000000000000	-0.200000000000000	-0.103000000000000	0.0490000000000000	-0.0100000000000000	0.00500000000000000	-0.146000000000000	-0.0440000000000000	0.161000000000000	0.371000000000000	0.459000000000000	0.327000000000000	0.674000000000000	0.586000000000000	0.283000000000000	0.312000000000000	0.679000000000000	1.02500000000000	0.615000000000000	0.0150000000000000	0.396000000000000	0.337000000000000	0.0150000000000000	-0.146000000000000	0.0150000000000000	0.356000000000000	0.190000000000000	-0.0830000000000000	0.488000000000000	1.08900000000000	0.103000000000000	-0.508000000000000	0.732000000000000	-0.410000000000000	-1.05500000000000	-0.620000000000000	0.0390000000000000	0.527000000000000	0.415000000000000	0.0880000000000000	-0.0390000000000000	0.0830000000000000	-0.273000000000000	-0.244000000000000	0.0490000000000000	0.371000000000000	0.146000000000000	-0.0390000000000000	0.0390000000000000	0.244000000000000	-0.278000000000000	-0.420000000000000	-0.0730000000000000	-0.103000000000000	0.293000000000000	0.283000000000000	0.342000000000000	0.0630000000000000	-0.0290000000000000	0.190000000000000	-0.103000000000000	0.200000000000000	-0.0100000000000000	0.151000000000000	0.127000000000000	0.410000000000000	0.273000000000000	0.186000000000000	0.645000000000000	0.659000000000000	0.225000000000000	-0.195000000000000	-0.0390000000000000	0.264000000000000	0.264000000000000	-0.347000000000000	-0.532000000000000	0.327000000000000	0.454000000000000	0.142000000000000	0.0200000000000000	0.269000000000000	0.0100000000000000	0.337000000000000	0.840000000000000	-0.0540000000000000	-0.459000000000000	-0.317000000000000	0.112000000000000	0.366000000000000	0.356000000000000	0.229000000000000	0.532000000000000	0.0150000000000000	-0.205000000000000	-0.176000000000000	0.0730000000000000	0.0590000000000000	-0.195000000000000	0.132000000000000	0.713000000000000	0.645000000000000	-0.259000000000000	-0.620000000000000	0.0100000000000000	0.474000000000000	-0.0240000000000000	-0.176000000000000	0.103000000000000	0.386000000000000	0.308000000000000	-0.190000000000000	-0.269000000000000	-0.0200000000000000	-0.146000000000000	-0.444000000000000	-0.249000000000000	0.405000000000000	0.234000000000000	0.0590000000000000	-0.0540000000000000	0.142000000000000	-0.229000000000000	-0.381000000000000	-0.405000000000000	-0.0780000000000000	-0.430000000000000	0.0390000000000000	1.20100000000000	0.649000000000000	-0.400000000000000	-0.513000000000000	0.0730000000000000	-0.0340000000000000	0.0290000000000000	-0.103000000000000	-0.117000000000000	0.225000000000000	-0.195000000000000	-0.713000000000000	0.0980000000000000	1.05500000000000	0.664000000000000	-0.581000000000000	-0.918000000000000	-0.239000000000000	0.132000000000000	0.327000000000000	0.508000000000000	0.322000000000000	-0.112000000000000	-0.479000000000000	-0.0980000000000000	0.630000000000000	0.586000000000000	-0.400000000000000	-0.0100000000000000	0.591000000000000	0.840000000000000	0.542000000000000	0.303000000000000	-0.117000000000000	-0.571000000000000	-0.156000000000000	0.488000000000000	0.767000000000000	0.381000000000000	0.166000000000000	0.151000000000000	0.342000000000000	0.0830000000000000	-0.547000000000000	-0.195000000000000	0.0440000000000000	-0.312000000000000	-0.479000000000000	0.0390000000000000	-0.132000000000000	-0.0780000000000000	-0.0780000000000000	-0.200000000000000	-0.181000000000000	-0.454000000000000	-0.488000000000000	-0.137000000000000	0.137000000000000	-0.0540000000000000	-0.0390000000000000	0.0880000000000000	0.547000000000000	0.586000000000000	-0.454000000000000	0.0150000000000000	0.293000000000000	0.107000000000000	-0.713000000000000	-0.342000000000000	0.698000000000000	0.547000000000000	0.205000000000000	-0.312000000000000	-0.112000000000000	-0.127000000000000	-0.552000000000000	-0.117000000000000	0.181000000000000	-0.181000000000000	-0.835000000000000	-1.80200000000000	-1.06400000000000	-0.166000000000000	-0.273000000000000	-0.869000000000000	0.151000000000000	0.0100000000000000	-1.04000000000000	-0.693000000000000	-0.0490000000000000	-0.337000000000000	-0.679000000000000	-0.278000000000000	0.293000000000000	0.327000000000000	0.137000000000000	0.322000000000000	0.752000000000000	0.654000000000000	0.615000000000000	0.293000000000000	0.576000000000000	0.469000000000000	0.142000000000000	0.669000000000000	0.425000000000000	-0.166000000000000	-0.166000000000000	0.396000000000000	0.430000000000000	0.303000000000000	0.244000000000000	0.0590000000000000	-0.0780000000000000	-0.488000000000000	-0.381000000000000	0.186000000000000	-0.117000000000000	-0.322000000000000	-0.0240000000000000	0.391000000000000	0.483000000000000	-0.278000000000000	-0.283000000000000	0.386000000000000	0.327000000000000	-0.0390000000000000	-0.386000000000000	-0.601000000000000	-0.259000000000000	0.127000000000000	0.112000000000000	0.107000000000000	-0.0780000000000000	-0.312000000000000	-0.454000000000000	0.146000000000000	0.264000000000000	-0.0100000000000000	-0.103000000000000	-0.479000000000000	-0.186000000000000	-0.430000000000000	-1.18700000000000	-0.742000000000000	-0.00500000000000000	-0.0490000000000000	-0.312000000000000	0.757000000000000	0.479000000000000	-0.410000000000000	-0.264000000000000	-0.508000000000000	-0.137000000000000	-0.518000000000000	-0.601000000000000	-0.0780000000000000	-0.293000000000000	-0.161000000000000	0.479000000000000	-0.195000000000000	0.527000000000000	0.400000000000000	-0.664000000000000	-0.439000000000000	-0.146000000000000	-0.327000000000000	-0.503000000000000	-0.352000000000000	0.376000000000000	1.15200000000000	0.0780000000000000	-0.771000000000000	-0.488000000000000	-0.459000000000000	-0.137000000000000	0.566000000000000	0.937000000000000	0.581000000000000	0.371000000000000	0.161000000000000	0.439000000000000	0.464000000000000	-0.142000000000000	0.107000000000000	0.142000000000000	-0.415000000000000	-0.698000000000000	0.200000000000000	0.430000000000000	0.0680000000000000	0.298000000000000	0.410000000000000	0.171000000000000	-0.742000000000000	-0.181000000000000	-0.723000000000000	-0.190000000000000	0.161000000000000	-0.0830000000000000	-0.273000000000000	-0.0540000000000000	-0.0150000000000000	-0.0980000000000000	0.298000000000000	0.269000000000000	-0.625000000000000	-1.07400000000000	-0.879000000000000	-0.186000000000000	0.195000000000000	-0.229000000000000	-0.430000000000000	0.0390000000000000	0.117000000000000	-0.0680000000000000	-0.474000000000000	-0.425000000000000	-0.596000000000000	-0.449000000000000	-0.0590000000000000	-0.0290000000000000	-0.259000000000000	-0.942000000000000	-0.283000000000000	0.347000000000000	-0.537000000000000	-0.640000000000000	0.273000000000000	0.698000000000000	0.513000000000000	-0.146000000000000	-0.381000000000000	-0.0880000000000000	0.0680000000000000	-0.239000000000000	-0.361000000000000	-0.0880000000000000	0.0830000000000000	-0.161000000000000	0.103000000000000	0.679000000000000	1.31300000000000	0.483000000000000	-0.405000000000000	-0.269000000000000	0.259000000000000	0.488000000000000	0.371000000000000	0.269000000000000	0.342000000000000	-0.176000000000000	0.0680000000000000	0.566000000000000	0.337000000000000	-0.132000000000000	-0.0540000000000000	-0.459000000000000	-0.356000000000000	-0.688000000000000	-0.308000000000000	0.244000000000000	-0.166000000000000	-0.195000000000000	0.347000000000000	0.356000000000000	-0.190000000000000	-0.454000000000000	-0.474000000000000	-0.308000000000000	-0.415000000000000	-0.566000000000000	-0.0980000000000000	0.693000000000000	-0.581000000000000	-0.142000000000000	0.991000000000000	0.732000000000000	0	0.273000000000000	0.366000000000000	0.288000000000000	-0.0290000000000000	-0.254000000000000	0.137000000000000	-0.00500000000000000	-0.713000000000000	-0.625000000000000	-0.176000000000000	0.869000000000000	0.957000000000000	-0.889000000000000	-0.933000000000000	-0.112000000000000	0.0680000000000000	-0.376000000000000	-0.190000000000000	0.0830000000000000	-0.376000000000000	-0.654000000000000	-0.430000000000000	0.0680000000000000	0.430000000000000	-0.0200000000000000	-0.0780000000000000	0.181000000000000	0.537000000000000	0.410000000000000	-0.518000000000000	-0.854000000000000	0.146000000000000	0.776000000000000	1.06400000000000	0.630000000000000	0	-0.605000000000000	0.117000000000000	0.347000000000000	0.00500000000000000	0.0540000000000000	-0.161000000000000	0.122000000000000	-0.0240000000000000	-0.449000000000000	0.0780000000000000	-0.767000000000000	-0.630000000000000	-0.518000000000000	0.0590000000000000	0.132000000000000	-0.273000000000000	-0.630000000000000	-0.415000000000000	-0.137000000000000	-0.469000000000000	-0.503000000000000	-0.0590000000000000	0.298000000000000	0.0680000000000000	-0.532000000000000	-0.723000000000000	-0.205000000000000	0.249000000000000	-0.0390000000000000	-0.112000000000000	-0.298000000000000	0.0340000000000000	0.713000000000000	-0.508000000000000	-1.51400000000000	-1.71400000000000	-1.70900000000000	-0.0490000000000000	0.923000000000000	0.522000000000000	-0.146000000000000	-0.215000000000000	0.215000000000000	0.845000000000000	0.283000000000000	0.122000000000000	0.181000000000000	0.527000000000000	-0.210000000000000	-0.142000000000000	0.601000000000000	0.449000000000000	0.156000000000000	0.249000000000000	0.698000000000000	-0.122000000000000	-0.386000000000000	-0.337000000000000	0.239000000000000	0.552000000000000	-0.0100000000000000	-0.303000000000000	-1.07400000000000	-0.811000000000000	-0.239000000000000	0.713000000000000	0.0780000000000000	-0.273000000000000	-0.425000000000000	-0.244000000000000	-0.244000000000000	-1.10800000000000	-0.737000000000000	0.410000000000000	0.703000000000000	1.57700000000000	1.00100000000000	-0.181000000000000	-0.308000000000000	-0.0930000000000000	1.19100000000000	0.874000000000000	-0.234000000000000	-0.493000000000000	0.562000000000000	0.659000000000000	1.34800000000000	1.04500000000000	0.273000000000000	0.151000000000000	0.283000000000000	0.0880000000000000	0.234000000000000	0.0490000000000000	-0.0100000000000000	0.576000000000000	0.791000000000000	0.674000000000000	0.308000000000000	0.0290000000000000	-0.742000000000000	-0.474000000000000	0.161000000000000	-0.249000000000000	-0.0980000000000000	-0.0100000000000000	-0.137000000000000	-0.288000000000000	-0.0340000000000000	-0.186000000000000	0.210000000000000	0.479000000000000	-0.215000000000000	-0.732000000000000	-0.269000000000000	-0.942000000000000	-1.09400000000000	-0.327000000000000	-0.361000000000000	-0.659000000000000	-0.532000000000000	-0.166000000000000	0.728000000000000	0.591000000000000	-0.161000000000000	0.00500000000000000	0.908000000000000	0.181000000000000	-0.767000000000000	-0.503000000000000	-0.850000000000000	-0.977000000000000	-0.298000000000000	0.166000000000000	0.0490000000000000	0.474000000000000	-0.210000000000000	-0.635000000000000	0.449000000000000	-0.0340000000000000	-0.576000000000000	0.361000000000000	-0.0930000000000000	-1.55300000000000	-0.791000000000000	0.308000000000000	1.66000000000000	0.791000000000000	-0.356000000000000	-0.337000000000000	0.200000000000000	0.190000000000000	0.854000000000000	0.571000000000000	0.293000000000000	-1.23500000000000	-1.00600000000000	-0.142000000000000	0.566000000000000	0.654000000000000	-0.0390000000000000	-0.361000000000000	0.977000000000000	0.801000000000000	-0.0100000000000000	-0.542000000000000	-0.176000000000000	0.0830000000000000	-0.654000000000000	-0.298000000000000	0.366000000000000	0.234000000000000	0.225000000000000	0.674000000000000	0.957000000000000	0.708000000000000	0.0880000000000000	0.137000000000000	0.679000000000000	0.415000000000000	-0.0590000000000000	-0.0290000000000000	-0.186000000000000	-0.498000000000000	-0.342000000000000	1.02100000000000	1.26500000000000	-0.278000000000000	0.117000000000000	0.405000000000000	0.576000000000000	0.0200000000000000	-0.103000000000000	-0.640000000000000	-0.825000000000000	-0.776000000000000	-0.767000000000000	-0.103000000000000	0.273000000000000	-0.0830000000000000	-0.288000000000000	0.820000000000000	0.469000000000000	-0.488000000000000	-1.10400000000000	-0.806000000000000	0.0390000000000000	-0.962000000000000	-1.44000000000000	-1.02100000000000	-0.181000000000000	0.571000000000000	0.630000000000000	-0.293000000000000	0.322000000000000	0.991000000000000	-0.0780000000000000	-0.405000000000000	-0.278000000000000	-0.229000000000000	-0.322000000000000	0.00500000000000000	0.732000000000000	1.00600000000000	1.06900000000000	0.552000000000000	0.771000000000000	1.30900000000000	0.254000000000000	-0.0490000000000000	0.352000000000000	-0.0540000000000000	-0.645000000000000	-0.503000000000000	0.190000000000000	0.649000000000000	0.0630000000000000	-0.122000000000000	0.386000000000000	0.273000000000000	-0.415000000000000	-0.293000000000000	-0.439000000000000	-0.586000000000000	-0.591000000000000	-0.439000000000000	0.200000000000000	0.171000000000000	-0.605000000000000	0.151000000000000	0.0490000000000000	-0.0590000000000000	-0.361000000000000	-0.425000000000000	0.0680000000000000	0.283000000000000	-0.308000000000000	-0.361000000000000	-0.127000000000000	-0.225000000000000	1.46000000000000	1.50900000000000	0.410000000000000	-0.156000000000000	-0.464000000000000	-0.366000000000000	-0.0780000000000000	-0.425000000000000	-1.20100000000000	-0.376000000000000	0.488000000000000	-0.225000000000000	-0.190000000000000	0.425000000000000	-0.806000000000000	-0.146000000000000	-0.0340000000000000	-0.483000000000000	-1.34300000000000	-1.44500000000000	-1.32800000000000	-0.195000000000000	0.151000000000000	0.273000000000000	0.244000000000000	-0.00500000000000000	0.0880000000000000	0.122000000000000	-0.352000000000000	-0.542000000000000	-0.122000000000000	0.0780000000000000	0.171000000000000	0.493000000000000	0.781000000000000	0.210000000000000	0.190000000000000	0.254000000000000	0.117000000000000	-0.103000000000000	-0.854000000000000	-0.576000000000000	0.0290000000000000	0.972000000000000	-0.361000000000000	-0.830000000000000	0.210000000000000	1.65000000000000	0.332000000000000	-0.747000000000000	-1.36700000000000	-1.58200000000000	-1.65500000000000	-0.859000000000000	-1.06900000000000	0.146000000000000	-0.454000000000000	-1.01600000000000	-1.03500000000000	-0.972000000000000	-1.55300000000000	-1.29900000000000	-0.610000000000000	-0.703000000000000	-0.713000000000000	-0.537000000000000	0.459000000000000	-0.156000000000000	-0.474000000000000	-0.850000000000000	-0.239000000000000	-0.327000000000000	-0.850000000000000	-0.571000000000000	0.0150000000000000	0.410000000000000	0.708000000000000	0.493000000000000	0.122000000000000	-0.625000000000000	-1.19600000000000	-0.205000000000000	0.0630000000000000	-0.483000000000000	-0.723000000000000	-0.400000000000000	-0.117000000000000	0.483000000000000	0.0290000000000000	-0.947000000000000	-0.298000000000000	0.0830000000000000	-1.76300000000000	-0.864000000000000	0.830000000000000	1.56200000000000	0.869000000000000	0.415000000000000	-0.200000000000000	-0.293000000000000	-0.605000000000000	-0.488000000000000	0.693000000000000	0.620000000000000	-0.391000000000000	-0.796000000000000	-0.557000000000000	-0.591000000000000	-0.107000000000000	-0.557000000000000	-1.00600000000000	-0.308000000000000	0.732000000000000	0.122000000000000	-1.02100000000000	-1.18200000000000	-1.12300000000000	-0.835000000000000	-0.693000000000000	-0.801000000000000	-0.996000000000000	1.86500000000000	2.06500000000000	0.0730000000000000	-1.22100000000000	-1.19600000000000	-0.0240000000000000	-0.142000000000000	-1.12800000000000	-0.669000000000000	-0.918000000000000	-1.68500000000000	-1.53800000000000	0.830000000000000	0.464000000000000	0.581000000000000	-0.171000000000000	-1.06400000000000	-1.11800000000000	-0.610000000000000	-1.82600000000000	-2.59800000000000	-3.00800000000000	-2.89100000000000	-0.0340000000000000	1.87000000000000	1.31800000000000	0.654000000000000	0.562000000000000	1.75800000000000	0.0590000000000000	-1.74800000000000	-3.21800000000000	-1.93800000000000	-0.610000000000000	0.0680000000000000	-0.303000000000000	-0.264000000000000	0.845000000000000	1.36700000000000	1.07900000000000	-0.747000000000000	-0.435000000000000	-0.654000000000000	-1.05000000000000	-0.469000000000000	-0.889000000000000	-2.58800000000000	-2.49000000000000	-2.53900000000000	-3.34000000000000	-4.16000000000000	-2.73900000000000	-1.72400000000000	-0.820000000000000	1.76800000000000	-0.225000000000000	-5.89800000000000	-2.52900000000000	-0.576000000000000	-3.30100000000000	-3.84800000000000	-3.03200000000000	-2.30000000000000	-0.229000000000000	-0.845000000000000	-2.39700000000000	-2.47100000000000	-3.11000000000000	-1.63600000000000	-0.742000000000000	-0.405000000000000	-0.688000000000000	-1.16200000000000	0.298000000000000	-0.410000000000000	-2.06500000000000	-2.86600000000000	-4.58000000000000	-3.28100000000000	-1.21600000000000	0.552000000000000	0.552000000000000	-0.688000000000000	-0.771000000000000	-1.89900000000000	-2.89600000000000	-2.18300000000000	-1.01600000000000	1.12800000000000	0.210000000000000	-0.669000000000000	-1.40600000000000	-0.933000000000000	-2.03100000000000	-2.33900000000000	-1.36200000000000	-0.684000000000000	-1.10400000000000	-2.63200000000000	-2.25600000000000	-0.537000000000000	0.200000000000000	1.24500000000000	0.293000000000000	-1.93800000000000	-2.30500000000000	-1.26500000000000	-3.14900000000000	-2.38800000000000	-1.75800000000000	-2.28500000000000	-3.67200000000000	-1.59200000000000	0.820000000000000	0.469000000000000	-0.723000000000000	-1.84600000000000	-1.06000000000000	-1.93400000000000	-2.61200000000000	-2.31000000000000	-0.942000000000000	-0.601000000000000	-1.33800000000000	-0.317000000000000	2.54900000000000	2.31900000000000	-1.21600000000000	-2.88100000000000	-1.95800000000000	-2.22700000000000	-2.85600000000000	0.322000000000000	1.43100000000000	0.586000000000000	-1.66000000000000	-3.38900000000000	-1.20100000000000	1.69900000000000	-1.02500000000000	0.332000000000000	-0.234000000000000	-0.0490000000000000	-0.972000000000000	-2.76400000000000	-2.87100000000000	-1.56700000000000	-1.36200000000000	-0.889000000000000	1.24500000000000	2.16800000000000	1.20600000000000	-0.352000000000000	-0.898000000000000	-2.56300000000000	-3.04700000000000	-4.46800000000000	-3.49600000000000	-2.95900000000000	-2.45600000000000	1.10400000000000	1.58700000000000	0.176000000000000	-3.09100000000000	-3.82300000000000	-3.24700000000000	-2.25100000000000	-3.89200000000000	-3.62300000000000	-1.33300000000000	-1.46000000000000	-3.61800000000000	0.103000000000000	2.68100000000000	-2.45100000000000	-3.61300000000000	-0.933000000000000	-0.0150000000000000	-0.723000000000000	0	0.298000000000000	0.630000000000000	-1.60600000000000	-0.562000000000000	-0.352000000000000	-0.527000000000000	-1.60200000000000	-1.38200000000000	-1.54800000000000	-1.47000000000000	1.08400000000000	2.07500000000000	1.40100000000000	-0.156000000000000	-2.87100000000000	-2.35800000000000	-3.98400000000000	-2.98300000000000	1.08400000000000	2.50000000000000	2.12900000000000	-1.13800000000000	-2.21200000000000	-2.01700000000000	-1.27400000000000	0.381000000000000	0.171000000000000	-0.454000000000000	0.605000000000000	-0.386000000000000	0.557000000000000	0.747000000000000	1.16200000000000	-0.786000000000000	-2.17300000000000	-0.801000000000000	0.0730000000000000	0.830000000000000	-0.283000000000000	-1.66000000000000	-2.32400000000000	-3.03200000000000	-3.00300000000000	-1.90400000000000	-2.52000000000000	0.205000000000000	-2.18700000000000	-2.54400000000000	0.234000000000000	0.312000000000000	-1.27900000000000	-0.947000000000000	-0.532000000000000	-2.70000000000000	-2.85600000000000	-2.53400000000000	-2.63200000000000	-2.60300000000000	0.815000000000000	1.32300000000000	2.01700000000000	2.98800000000000	2.17300000000000	1.21600000000000	-1.75800000000000	-3.39800000000000	-2.80800000000000	-3.73500000000000	-0.762000000000000	-0.112000000000000	